wavelength[m],n,k
2.4000000000000003e-07,1.6844,3.3312
2.42e-07,1.7317,3.357
2.44e-07,1.7801,3.3777
2.46e-07,1.8318,3.4067
2.48e-07,1.8774,3.4219
2.5000000000000004e-07,1.9236,3.4458
2.5200000000000003e-07,1.9717,3.4721
2.54e-07,2.01,3.4965
2.56e-07,2.061,3.5225
2.58e-07,2.1072,3.5382
2.6e-07,2.1631,3.5597
2.62e-07,2.2099,3.5831
2.6400000000000003e-07,2.2571,3.5991
2.66e-07,2.3094,3.6191
2.68e-07,2.3627,3.6328
2.7e-07,2.4148,3.6511
2.72e-07,2.4636,3.66
2.74e-07,2.5163,3.6755
2.7600000000000004e-07,2.5723,3.6899
2.7800000000000003e-07,2.6313,3.7061
2.8e-07,2.6816,3.7121
2.82e-07,2.7391,3.722
2.84e-07,2.7993,3.7303
2.86e-07,2.8529,3.7364
2.8800000000000004e-07,2.913,3.7387
2.9000000000000003e-07,2.9684,3.7439
2.92e-07,3.0269,3.7474
2.94e-07,3.0826,3.746
2.96e-07,3.1419,3.7466
2.98e-07,3.2032,3.7444
3.0000000000000004e-07,3.2614,3.7385
3.0200000000000003e-07,3.323681,3.733288
3.04e-07,3.3831,3.7265
3.06e-07,3.440919,3.718062
3.08e-07,3.4984,3.7079
3.1e-07,3.558175,3.695819
3.1200000000000004e-07,3.6174,3.6821
3.1400000000000003e-07,3.673425,3.666893
3.16e-07,3.7283,3.6504
3.18e-07,3.783206,3.633244
3.2e-07,3.8381,3.6143
3.22e-07,3.89345,3.592156
3.2400000000000004e-07,3.9489,3.5683
3.2600000000000003e-07,4.005306,3.543831
3.28e-07,4.0595,3.5185
3.3e-07,4.106369,3.492862
3.32e-07,4.1526,3.4656
3.34e-07,4.20565,3.4355
3.3600000000000004e-07,4.2581,3.4028
3.3800000000000004e-07,4.303544,3.366
3.4000000000000003e-07,4.3464,3.3291
3.42e-07,4.389093,3.2972
3.44e-07,4.4312,3.2655
3.46e-07,4.473431,3.230169
3.4800000000000005e-07,4.5148,3.1934
3.5000000000000004e-07,4.5545,3.156306
3.5200000000000003e-07,4.5927,3.1183
3.54e-07,4.629331,3.078887
3.56e-07,4.6643,3.0389
3.58e-07,4.697343,2.999362
3.6000000000000005e-07,4.7289,2.9592
3.6200000000000004e-07,4.759543,2.917107
3.6400000000000003e-07,4.7886,2.8748
3.66e-07,4.815194,2.83415
3.68e-07,4.8405,2.7934
3.7e-07,4.865825,2.750762
3.7200000000000005e-07,4.8899,2.7082
3.7400000000000004e-07,4.911638,2.6675
3.7600000000000003e-07,4.9318,2.6274
3.78e-07,4.9506,2.587387
3.8e-07,4.9686,2.547
3.82e-07,4.986969,2.505019
3.8400000000000005e-07,5.0041,2.4632
3.8600000000000004e-07,5.018118,2.423456
3.8800000000000003e-07,5.031,2.3841
3.9e-07,5.044625,2.343444
3.92e-07,5.0574,2.3034
3.94e-07,5.067994,2.265987
3.96e-07,5.0775,2.2292
3.9800000000000004e-07,5.086925,2.191044
4.0000000000000003e-07,5.0952,2.1535
4.02e-07,5.101275,2.118319
4.04e-07,5.1061,2.0842
4.06e-07,5.10995,2.050581
4.08e-07,5.1138,2.017
4.1000000000000004e-07,5.119087,1.982469
4.1200000000000004e-07,5.1247,1.948
4.1400000000000003e-07,5.130463,1.914462
4.16e-07,5.135,1.8813
4.18e-07,5.137238,1.848312
4.2e-07,5.1361,1.8153
4.2200000000000005e-07,5.159863,1.797726
4.2400000000000004e-07,5.175486,1.776019
4.2600000000000003e-07,5.184026,1.750789
4.28e-07,5.186545,1.722646
4.3e-07,5.1841,1.6922
4.32e-07,5.177752,1.660062
4.3400000000000005e-07,5.168558,1.626843
4.3600000000000004e-07,5.157578,1.593153
4.3800000000000003e-07,5.145873,1.559602
4.4e-07,5.1345,1.5268
4.42e-07,5.130103,1.498533
4.44e-07,5.126761,1.471442
4.4600000000000005e-07,5.124138,1.445345
4.4800000000000004e-07,5.121897,1.420059
4.5000000000000003e-07,5.1197,1.3954
4.52e-07,5.115793,1.370516
4.54e-07,5.111613,1.34606
4.56e-07,5.107175,1.322016
4.5800000000000005e-07,5.102498,1.298368
4.6000000000000004e-07,5.0976,1.2751
4.6200000000000003e-07,5.092552,1.252055
4.64e-07,5.087304,1.229394
4.66e-07,5.08186,1.207134
4.68e-07,5.076224,1.185297
4.7000000000000005e-07,5.0704,1.1639
4.7200000000000004e-07,5.064255,1.143098
4.7400000000000004e-07,5.057963,1.122741
4.7600000000000003e-07,5.051565,1.102815
4.78e-07,5.045098,1.083306
4.800000000000001e-07,5.0386,1.0642
4.82e-07,5.032136,1.045549
4.84e-07,5.025712,1.027254
4.86e-07,5.01936,1.009286
4.88e-07,5.013112,0.991611
4.900000000000001e-07,5.007,0.9742
4.92e-07,5.001552,0.956992
4.940000000000001e-07,4.99618,0.939992
4.96e-07,4.990792,0.923176
4.98e-07,4.985296,0.90652
5.000000000000001e-07,4.9796,0.89
5.02e-07,4.97309,0.873394
5.040000000000001e-07,4.966327,0.856925
5.06e-07,4.959349,0.840619
5.08e-07,4.952193,0.824502
5.1e-07,4.9449,0.8086
5.12e-07,4.937676,0.792989
5.140000000000001e-07,4.930348,0.77763
5.16e-07,4.922912,0.762538
5.180000000000001e-07,4.915364,0.747723
5.2e-07,4.9077,0.7332
5.22e-07,4.899868,0.719073
5.24e-07,4.891924,0.705241
5.26e-07,4.883876,0.691691
5.280000000000001e-07,4.875732,0.678414
5.3e-07,4.8675,0.6654
5.32e-07,4.859425,0.653473
5.34e-07,4.851218,0.641579
5.36e-07,4.84283,0.629498
5.380000000000001e-07,4.834208,0.617011
5.4e-07,4.8253,0.6039
5.420000000000001e-07,4.813839,0.587456
5.44e-07,4.802546,0.57057
5.46e-07,4.791923,0.553647
5.48e-07,4.782473,0.537089
5.5e-07,4.7747,0.5213
5.520000000000001e-07,4.77425,0.508434
5.54e-07,4.775197,0.496705
5.560000000000001e-07,4.77676,0.486079
5.58e-07,4.778154,0.476522
5.6e-07,4.7786,0.468
5.620000000000001e-07,4.772879,0.461492
5.64e-07,4.765751,0.455696
5.660000000000001e-07,4.757545,0.450324
5.68e-07,4.748586,0.445088
5.7e-07,4.7392,0.4397
5.72e-07,4.730815,0.432333
5.74e-07,4.722382,0.424622
5.760000000000001e-07,4.713951,0.416666
5.78e-07,4.705573,0.408559
5.800000000000001e-07,4.6973,0.4004
5.82e-07,4.689436,0.392621
5.84e-07,4.681715,0.384898
5.860000000000001e-07,4.674128,0.377245
5.88e-07,4.66666,0.369675
5.900000000000001e-07,4.6593,0.3622
5.92e-07,4.652132,0.354759
5.94e-07,4.645024,0.347458
5.96e-07,4.63794,0.340326
5.98e-07,4.630844,0.333397
6.000000000000001e-07,4.6237,0.3267
6.02e-07,4.61597,0.320757
6.040000000000001e-07,4.608245,0.314987
6.06e-07,4.600615,0.309298
6.08e-07,4.593171,0.303599
6.100000000000001e-07,4.586,0.2978
6.12e-07,4.579952,0.291099
6.140000000000001e-07,4.574168,0.284291
6.16e-07,4.568548,0.277465
6.180000000000001e-07,4.562992,0.270706
6.2e-07,4.5574,0.2641
6.22e-07,4.551032,0.257946
6.240000000000001e-07,4.544588,0.252065
6.26e-07,4.538128,0.246491
6.280000000000001e-07,4.531712,0.241258
6.3e-07,4.5254,0.2364
6.32e-07,4.519793,0.232865
6.340000000000001e-07,4.514275,0.229542
6.36e-07,4.50877,0.226238
6.380000000000001e-07,4.503203,0.222755
6.4e-07,4.4975,0.2189
6.420000000000001e-07,4.491037,0.212925
6.44e-07,4.484425,0.206574
6.46e-07,4.477723,0.200041
6.480000000000001e-07,4.470994,0.193519
6.5e-07,4.4643,0.1872
6.520000000000001e-07,4.457971,0.18231
6.54e-07,4.451731,0.177751
6.56e-07,4.445577,0.173457
6.58e-07,4.439502,0.169362
6.6e-07,4.4335,0.1654
6.620000000000001e-07,4.427601,0.16118
6.64e-07,4.421757,0.157044
6.660000000000001e-07,4.415951,0.153008
6.68e-07,4.410171,0.149088
6.7e-07,4.4044,0.1453
6.720000000000001e-07,4.398536,0.141817
6.74e-07,4.392676,0.138458
6.760000000000001e-07,4.386828,0.135202
6.78e-07,4.381,0.132023
6.800000000000001e-07,4.3752,0.1289
6.82e-07,4.369455,0.125703
6.84e-07,4.36375,0.122542
6.860000000000001e-07,4.358087,0.119418
6.88e-07,4.352468,0.116337
6.900000000000001e-07,4.3469,0.1133
6.92e-07,4.341412,0.110314
6.94e-07,4.335972,0.107379
6.960000000000001e-07,4.330576,0.104497
6.98e-07,4.32522,0.10167
7.000000000000001e-07,4.3199,0.0989
7.02e-07,4.314487,0.095922
7.040000000000001e-07,4.309134,0.093073
7.06e-07,4.303867,0.090423
7.08e-07,4.298713,0.088042
7.100000000000001e-07,4.2937,0.086
7.12e-07,4.289124,0.085396
7.140000000000001e-07,4.284676,0.085012
7.16e-07,4.280316,0.08466
7.18e-07,4.276004,0.084152
7.200000000000001e-07,4.2717,0.0833
7.22e-07,4.266983,0.080492
7.240000000000001e-07,4.26229,0.07732
7.26e-07,4.257674,0.073952
7.280000000000001e-07,4.253193,0.070556
7.3e-07,4.2489,0.0673
7.32e-07,4.245481,0.065222
7.340000000000001e-07,4.242205,0.063403
7.36e-07,4.238967,0.061793
7.380000000000001e-07,4.235667,0.060342
7.4e-07,4.2322,0.059
7.420000000000001e-07,4.22813,0.0576
7.440000000000001e-07,4.223773,0.05624
7.46e-07,4.219111,0.0549
7.480000000000001e-07,4.214126,0.05356
7.5e-07,4.2088,0.0522
7.520000000000001e-07,4.202611,0.050595
7.54e-07,4.196169,0.048982
7.56e-07,4.189582,0.04739
7.580000000000001e-07,4.182957,0.045853
7.6e-07,4.1764,0.0444
7.620000000000001e-07,4.170234,0.043172
7.64e-07,4.164297,0.042064
7.660000000000001e-07,4.158643,0.04108
7.680000000000001e-07,4.153326,0.040224
7.7e-07,4.1484,0.0395
7.720000000000001e-07,4.144391,0.039184
7.74e-07,4.140761,0.03894
7.760000000000001e-07,4.137446,0.038704
7.78e-07,4.13438,0.038412
7.8e-07,4.1315,0.038
7.820000000000001e-07,4.128653,0.036876
7.84e-07,4.125882,0.035636
7.860000000000001e-07,4.123146,0.034348
7.88e-07,4.120399,0.03308
7.900000000000001e-07,4.1176,0.0319
7.92e-07,4.114433,0.031318
7.94e-07,4.111194,0.030849
7.960000000000001e-07,4.107909,0.030451
7.98e-07,4.104603,0.030082
8.000000000000001e-07,4.1013,0.0297
8.02e-07,4.098089,0.028916
8.04e-07,4.094914,0.02812
8.060000000000001e-07,4.091785,0.027356
8.08e-07,4.088711,0.026668
8.100000000000001e-07,4.0857,0.0261
8.12e-07,4.082841,0.026157
8.140000000000001e-07,4.080042,0.026306
8.16e-07,4.077293,0.026478
8.18e-07,4.074583,0.026599
8.200000000000001e-07,4.0719,0.0266
8.22e-07,4.069191,0.025846
8.240000000000001e-07,4.066497,0.024969
8.26e-07,4.063818,0.024039
8.280000000000001e-07,4.061152,0.023126
8.300000000000001e-07,4.0585,0.0223
8.32e-07,4.055859,0.02163
8.340000000000001e-07,4.053229,0.021185
8.36e-07,4.050611,0.021035
8.380000000000001e-07,4.048001,0.02125
8.4e-07,4.0454,0.0219
