wavelength[m],n,k
2.4000000000000003e-07,1.6401,3.3861
2.42e-07,1.6546,3.4157
2.44e-07,1.6695,3.4579
2.46e-07,1.691,3.518
2.48e-07,1.703,3.5604
2.5000000000000004e-07,1.7244,3.6277
2.5200000000000003e-07,1.7461,3.6894
2.54e-07,1.7763,3.7672
2.56e-07,1.8019,3.8315
2.58e-07,1.8313,3.9151
2.6e-07,1.8859,4.0064
2.62e-07,1.9338,4.1029
2.6400000000000003e-07,2.0023,4.194
2.66e-07,2.071,4.2985
2.68e-07,2.1656,4.4094
2.7e-07,2.2729,4.5165
2.72e-07,2.3934,4.6215
2.74e-07,2.5429,4.7153
2.7600000000000004e-07,2.7003,4.7935
2.7800000000000003e-07,2.8806,4.863
2.8e-07,3.0562,4.9135
2.82e-07,3.2633,4.9493
2.84e-07,3.4811,4.9672
2.86e-07,3.6873,4.963
2.8800000000000004e-07,3.9261,4.9189
2.9000000000000003e-07,4.1486,4.8435
2.92e-07,4.3443,4.7247
2.94e-07,4.5066,4.5798
2.96e-07,4.639,4.4238
2.98e-07,4.7317,4.2673
3.0000000000000004e-07,4.8065,4.1277
3.0200000000000003e-07,4.858075,3.992176
3.04e-07,4.8942,3.8729
3.06e-07,4.91965,3.766925
3.08e-07,4.9392,3.6713
3.1e-07,4.961069,3.580869
3.1200000000000004e-07,4.9797,3.4993
3.1400000000000003e-07,4.98955,3.430562
3.16e-07,4.9988,3.3686
3.18e-07,5.016263,3.30705
3.2e-07,5.0345,3.2508
3.22e-07,5.047169,3.204312
3.2400000000000004e-07,5.0598,3.1625
3.2600000000000003e-07,5.076544,3.121206
3.28e-07,5.0952,3.0821
3.3e-07,5.114632,3.045218
3.32e-07,5.1358,3.0113
3.34e-07,5.159237,2.981631
3.3600000000000004e-07,5.1851,2.9546
3.3800000000000004e-07,5.213119,2.9287
3.4000000000000003e-07,5.2451,2.9049
3.42e-07,5.283218,2.883962
3.44e-07,5.3261,2.865
3.46e-07,5.371756,2.848194
3.4800000000000005e-07,5.4242,2.8311
3.5000000000000004e-07,5.487206,2.812456
3.5200000000000003e-07,5.5595,2.7889
3.54e-07,5.641438,2.757369
3.56e-07,5.7319,2.7157
3.58e-07,5.830862,2.66235
3.6000000000000005e-07,5.9354,2.5924
3.6200000000000004e-07,6.046162,2.500607
3.6400000000000003e-07,6.1524,2.3864
3.66e-07,6.2452,2.243737
3.68e-07,6.3197,2.0838
3.7e-07,6.367706,1.914081
3.7200000000000005e-07,6.3903,1.7396
3.7400000000000004e-07,6.384587,1.565893
3.7600000000000003e-07,6.3543,1.3989
3.78e-07,6.298906,1.2467
3.8e-07,6.2283,1.1084
3.82e-07,6.152031,0.984
3.8400000000000005e-07,6.0706,0.8789
3.8600000000000004e-07,5.982825,0.801419
3.8800000000000003e-07,5.9033,0.7428
3.9e-07,5.857588,0.705688
3.92e-07,5.8116,0.6642
3.94e-07,5.729881,0.576688
3.96e-07,5.6421,0.4931
3.9800000000000004e-07,5.569144,0.461594
4.0000000000000003e-07,5.5019,0.4459
4.02e-07,5.437356,0.424194
4.04e-07,5.3781,0.4013
4.06e-07,5.325932,0.372225
4.08e-07,5.2802,0.3446
4.1000000000000004e-07,5.242525,0.325969
4.1200000000000004e-07,5.2079,0.3116
4.1400000000000003e-07,5.171006,0.299444
4.16e-07,5.1344,0.289
4.18e-07,5.098669,0.279381
4.2e-07,5.0644,0.2697
4.2200000000000005e-07,5.040989,0.262542
4.2400000000000004e-07,5.00855,0.254895
4.2600000000000003e-07,4.970778,0.246797
4.28e-07,4.931363,0.238286
4.3e-07,4.894,0.2294
4.32e-07,4.867241,0.219725
4.3400000000000005e-07,4.844365,0.210271
4.3600000000000004e-07,4.822995,0.202026
4.3800000000000003e-07,4.801782,0.195115
4.4e-07,4.7804,0.1888
4.42e-07,4.756553,0.182549
4.44e-07,4.732524,0.176534
4.4600000000000005e-07,4.70958,0.170622
4.4800000000000004e-07,4.688106,0.164845
4.5000000000000003e-07,4.6676,0.1594
4.52e-07,4.648096,0.154476
4.54e-07,4.629344,0.150032
4.56e-07,4.611197,0.146126
4.5800000000000005e-07,4.593482,0.142763
4.6000000000000004e-07,4.576,0.1399
4.6200000000000003e-07,4.558214,0.137881
4.64e-07,4.540693,0.135906
4.66e-07,4.523726,0.133295
4.68e-07,4.507459,0.129858
4.7000000000000005e-07,4.4919,0.1259
4.7200000000000004e-07,4.477483,0.121226
4.7400000000000004e-07,4.463518,0.116433
4.7600000000000003e-07,4.449437,0.112082
4.78e-07,4.435142,0.108303
4.800000000000001e-07,4.421,0.1048
4.82e-07,4.407426,0.101427
4.84e-07,4.393955,0.098234
4.86e-07,4.380065,0.095197
4.88e-07,4.365906,0.092314
4.900000000000001e-07,4.3523,0.0896
4.92e-07,4.340659,0.087113
4.940000000000001e-07,4.329487,0.08475
4.96e-07,4.317804,0.082439
4.98e-07,4.305452,0.08015
5.000000000000001e-07,4.2931,0.0779
5.02e-07,4.281167,0.07562
5.040000000000001e-07,4.269559,0.073436
5.06e-07,4.258384,0.07146
5.08e-07,4.247676,0.069708
5.1e-07,4.2374,0.0681
5.12e-07,4.22759,0.066559
5.140000000000001e-07,4.218173,0.06515
5.16e-07,4.209057,0.063884
5.180000000000001e-07,4.200257,0.062788
5.2e-07,4.1919,0.0619
5.22e-07,4.184256,0.061286
5.24e-07,4.176964,0.060905
5.26e-07,4.170062,0.060946
5.280000000000001e-07,4.163193,0.061209
5.3e-07,4.1556,0.0611
5.32e-07,4.145327,0.059697
5.34e-07,4.134818,0.05773
5.36e-07,4.125937,0.055342
5.380000000000001e-07,4.118906,0.052799
5.4e-07,4.1123,0.0505
5.420000000000001e-07,4.104802,0.049258
5.44e-07,4.097344,0.048375
5.46e-07,4.090313,0.047527
5.48e-07,4.083759,0.046602
5.5e-07,4.0774,0.0457
5.520000000000001e-07,4.071048,0.044819
5.54e-07,4.064744,0.043942
5.560000000000001e-07,4.058427,0.043019
5.58e-07,4.052094,0.042074
5.6e-07,4.0458,0.0412
5.620000000000001e-07,4.039603,0.040554
5.64e-07,4.033457,0.039979
5.660000000000001e-07,4.027401,0.039401
5.68e-07,4.021371,0.038778
5.7e-07,4.0152,0.0381
5.72e-07,4.008717,0.037286
5.74e-07,4.001926,0.036431
5.760000000000001e-07,3.994518,0.035576
5.78e-07,3.986701,0.034756
5.800000000000001e-07,3.9792,0.034
5.82e-07,3.973099,0.033407
5.84e-07,3.967546,0.032866
5.860000000000001e-07,3.962213,0.032289
5.88e-07,3.956954,0.031674
5.900000000000001e-07,3.9518,0.0311
5.92e-07,3.946599,0.030674
5.94e-07,3.941498,0.030289
5.96e-07,3.936617,0.029872
5.98e-07,3.931938,0.02942
6.000000000000001e-07,3.9273,0.029
6.02e-07,3.92248,0.028711
6.040000000000001e-07,3.917676,0.028442
6.06e-07,3.912961,0.028108
6.08e-07,3.908391,0.027704
6.100000000000001e-07,3.904,0.0273
6.12e-07,3.899827,0.026939
6.140000000000001e-07,3.89593,0.02663
6.16e-07,3.892473,0.026422
6.180000000000001e-07,3.889395,0.026305
6.2e-07,3.8864,0.0262
6.22e-07,3.883286,0.026013
6.240000000000001e-07,3.879923,0.025806
6.26e-07,3.875824,0.02559
6.280000000000001e-07,3.871168,0.025381
6.3e-07,3.8668,0.0252
6.32e-07,3.864067,0.025067
6.340000000000001e-07,3.861691,0.025002
6.36e-07,3.858961,0.025048
6.380000000000001e-07,3.855705,0.0252
6.4e-07,3.8523,0.0254
6.420000000000001e-07,3.848953,0.025678
6.44e-07,3.845538,0.025869
6.46e-07,3.841954,0.025823
6.480000000000001e-07,3.838265,0.025486
6.5e-07,3.8347,0.0249
6.520000000000001e-07,3.831643,0.023996
6.54e-07,3.828735,0.0229
6.56e-07,3.825828,0.021634
6.58e-07,3.822828,0.020305
6.6e-07,3.8197,0.0191
6.620000000000001e-07,3.81624,0.018313
6.64e-07,3.812684,0.017778
6.660000000000001e-07,3.809205,0.017513
6.68e-07,3.805822,0.017462
6.7e-07,3.8024,0.0175
6.720000000000001e-07,3.798636,0.017471
6.74e-07,3.795,0.01743
6.760000000000001e-07,3.791905,0.017366
6.78e-07,3.789386,0.017263
6.800000000000001e-07,3.7871,0.0171
6.82e-07,3.784799,0.016801
6.84e-07,3.782533,0.016466
6.860000000000001e-07,3.780239,0.016158
6.88e-07,3.77789,0.015903
6.900000000000001e-07,3.7755,0.0157
6.92e-07,3.773056,0.0156
6.94e-07,3.770564,0.015532
6.960000000000001e-07,3.767995,0.015467
6.98e-07,3.765378,0.01537
7.000000000000001e-07,3.7628,0.0152
7.02e-07,3.76043,0.014794
7.040000000000001e-07,3.758085,0.014379
7.06e-07,3.755628,0.014143
7.08e-07,3.753056,0.014102
7.100000000000001e-07,3.7505,0.0141
7.12e-07,3.748035,0.014004
7.140000000000001e-07,3.745702,0.013876
7.16e-07,3.743618,0.0137
7.18e-07,3.741767,0.013492
7.200000000000001e-07,3.74,0.0133
7.22e-07,3.738171,0.013201
7.240000000000001e-07,3.73633,0.01313
7.26e-07,3.73443,0.01306
7.280000000000001e-07,3.732493,0.01298
7.3e-07,3.7306,0.0129
7.32e-07,3.728977,0.012837
7.340000000000001e-07,3.727302,0.012754
7.36e-07,3.725289,0.012614
7.380000000000001e-07,3.72293,0.012417
7.4e-07,3.7205,0.0122
7.420000000000001e-07,3.718252,0.011983
7.440000000000001e-07,3.716068,0.011786
7.46e-07,3.713967,0.011655
7.480000000000001e-07,3.71193,0.011582
7.5e-07,3.7099,0.0115
7.520000000000001e-07,3.70781,0.011302
7.54e-07,3.705681,0.011095
7.56e-07,3.703466,0.010958
7.580000000000001e-07,3.701199,0.010889
7.6e-07,3.699,0.0108
7.620000000000001e-07,3.697118,0.010563
7.64e-07,3.695259,0.010314
7.660000000000001e-07,3.693166,0.010147
7.680000000000001e-07,3.690853,0.01007
7.7e-07,3.6886,0.01
7.720000000000001e-07,3.686768,0.009853
7.74e-07,3.685048,0.009686
7.760000000000001e-07,3.683267,0.00951
7.78e-07,3.681406,0.009341
7.8e-07,3.6796,0.0092
7.820000000000001e-07,3.677973,0.009163
7.84e-07,3.676438,0.00913
7.860000000000001e-07,3.674994,0.009019
7.88e-07,3.673603,0.008822
7.900000000000001e-07,3.6722,0.0086
7.92e-07,3.670649,0.0084
7.94e-07,3.669078,0.0082
7.960000000000001e-07,3.667575,0.007984
7.98e-07,3.666142,0.007768
8.000000000000001e-07,3.6647,0.0076
8.02e-07,3.663142,0.007568
8.04e-07,3.661575,0.007584
8.060000000000001e-07,3.660059,0.007619
8.08e-07,3.65861,0.007638
8.100000000000001e-07,3.6572,0.0076
8.12e-07,3.655895,0.007348
8.140000000000001e-07,3.654531,0.007096
8.16e-07,3.652781,0.007026
8.18e-07,3.650794,0.007149
8.200000000000001e-07,3.6492,0.0073
8.22e-07,3.649135,0.007325
8.240000000000001e-07,3.649393,0.007314
8.26e-07,3.649297,0.007278
8.280000000000001e-07,3.648602,0.007233
8.300000000000001e-07,3.6475,0.0072
8.32e-07,3.645703,0.007294
8.340000000000001e-07,3.64375,0.007331
8.36e-07,3.641914,0.007221
8.380000000000001e-07,3.640473,0.006874
8.4e-07,3.6397,0.0062
