wavelength[m],n,k
2.47970363e-07,2.0735,3.7211
2.4859184200000004e-07,2.129618,3.736937
2.49216445e-07,2.173,3.7633
2.49844194e-07,2.210455,3.793462
2.50475114e-07,2.2488,3.8207
2.5110922800000004e-07,2.300625,3.830787
2.5174656100000003e-07,2.3554,3.8395
2.52387137e-07,2.403382,3.863232
2.53030982e-07,2.4548,3.8859
2.5367812000000004e-07,2.521414,3.893694
2.54328577e-07,2.5889,3.8962
2.54982378e-07,2.642949,3.899737
2.55639549e-07,2.6953,3.9003
2.5630011600000004e-07,2.754361,3.894956
2.56964106e-07,2.8158,3.8868
2.57631546e-07,2.878931,3.880125
2.58302461e-07,2.9412,3.8684
2.5897688e-07,2.998645,3.842662
2.5965483e-07,3.0548,3.8145
2.60336339e-07,3.113039,3.796056
2.61021434e-07,3.1699,3.7767
2.6171014500000003e-07,3.223262,3.748332
2.624025e-07,3.2725,3.7155
2.6309852800000003e-07,3.313774,3.67912
2.63798258e-07,3.3546,3.642
2.6450172e-07,3.404281,3.608938
2.65208944e-07,3.4536,3.5749
2.6591996e-07,3.495626,3.534868
2.66634798e-07,3.5328,3.4936
2.6735349100000003e-07,3.564719,3.454574
2.6807606800000003e-07,3.593,3.4166
2.6880256100000005e-07,3.618331,3.380876
2.6953300300000005e-07,3.6431,3.3437
2.7026742500000003e-07,3.671218,3.299814
2.71005861e-07,3.6988,3.2551
2.71748343e-07,3.723244,3.214306
2.7249490400000003e-07,3.7446,3.1756
2.7324557900000004e-07,3.76085,3.139168
2.74000401e-07,3.7756,3.1037
2.74759405e-07,3.791532,3.068118
2.75522625e-07,3.8094,3.0319
2.7629009800000003e-07,3.83205,2.993782
2.77061858e-07,3.8559,2.9549
2.77837941e-07,3.88,2.916076
2.78618385e-07,3.8993,2.877
2.79403225e-07,3.905069,2.838013
2.8019250000000004e-07,3.9074,2.798
2.80986247e-07,3.914994,2.755655
2.81784503e-07,3.9233,2.7119
2.82587308e-07,3.931094,2.666268
2.833947e-07,3.9371,2.6216
2.8420671900000004e-07,3.939562,2.580932
2.8502340500000006e-07,3.9387,2.5432
2.8584479800000006e-07,3.933075,2.509307
2.86670939e-07,3.9259,2.4764
2.8750187e-07,3.920856,2.441075
2.88337631e-07,3.9151,2.4059
2.89178265e-07,3.906187,2.371931
2.90023816e-07,3.8966,2.3403
2.9087432600000003e-07,3.888844,2.313306
2.91729838e-07,3.8804,2.2885
2.92590398e-07,3.868456,2.264076
2.9345605e-07,3.8564,2.2404
2.9432684000000004e-07,3.848006,2.217232
2.9520281300000004e-07,3.8393,2.1946
2.9608401500000005e-07,3.826481,2.172125
2.96970494e-07,3.8128,2.1508
2.97862297e-07,3.800643,2.13195
2.9875947300000006e-07,3.7888,2.1142
2.9966207000000007e-07,3.7764,2.096162
3.00570136e-07,3.7648,2.0792
3.0148372400000003e-07,3.756069,2.065444
3.02402881e-07,3.7472,2.0512
3.03327661e-07,3.734863,2.030975
3.04258114e-07,3.7221,2.0123
3.0519429200000005e-07,3.711119,2.003406
3.0613625e-07,3.7011,1.9967
3.0708404e-07,3.692437,1.986006
3.0803771700000003e-07,3.6837,1.9753
3.0899733700000006e-07,3.673206,1.967387
3.09962953e-07,3.6621,1.9596
3.10934624e-07,3.650169,1.949406
3.11912406e-07,3.6398,1.9392
3.12896357e-07,3.63525,1.930706
3.13886535e-07,3.6307,1.9234
3.14883e-07,3.619831,1.917538
3.15885812e-07,3.6084,1.9125
3.16895032e-07,3.601131,1.907812
3.1791072100000004e-07,3.5948,1.9033
3.1893294200000004e-07,3.587481,1.898375
3.19961758e-07,3.58,1.8938
3.20997233e-07,3.572088,1.890631
3.22039432e-07,3.5651,1.8874
3.2308842e-07,3.56135,1.8822
3.2414426500000006e-07,3.5577,1.8774
3.25207033e-07,3.550681,1.875756
3.26276793e-07,3.5436,1.8742
3.27353614e-07,3.539313,1.86915
3.28437566e-07,3.5357,1.8649
3.2952872100000003e-07,3.531256,1.866206
3.3062715e-07,3.527,1.8681
3.3173292700000005e-07,3.523556,1.8662
3.32846124e-07,3.5206,1.8635
3.33966818e-07,3.517913,1.86145
3.35095085e-07,3.5158,1.8603
3.36231e-07,3.514838,1.861381
3.37374643e-07,3.514,1.8629
3.38526092e-07,3.512275,1.863
3.3968542800000003e-07,3.5102,1.8632
3.4085273200000005e-07,3.507819,1.864925
3.42028086e-07,3.5056,1.8666
3.43211575e-07,3.503806,1.866406
3.4440328100000003e-07,3.5031,1.8665
3.45603293e-07,3.504944,1.8692
3.4681169600000003e-07,3.5072,1.8722
3.48028579e-07,3.507638,1.873388
3.49254032e-07,3.508,1.8745
3.50488145e-07,3.50985,1.876944
3.5173101100000005e-07,3.5115,1.8796
3.5298272300000006e-07,3.510706,1.881575
3.5424337500000004e-07,3.5107,1.8836
3.55513065e-07,3.515131,1.88595
3.5679188900000003e-07,3.5205,1.8891
3.58079946e-07,3.523687,1.894269
3.59377337e-07,3.5272,1.8995
3.6068416400000004e-07,3.533475,1.902831
3.62000529e-07,3.5396,1.9055
3.6332653900000006e-07,3.542506,1.9077
3.6466229800000006e-07,3.5451,1.9106
3.6600791500000004e-07,3.549294,1.916219
3.673635e-07,3.555,1.9222
3.6872916400000003e-07,3.56365,1.926331
3.7010501900000006e-07,3.5726,1.9302
3.7149118e-07,3.578675,1.934987
3.7288776300000004e-07,3.5849,1.9397
3.7429488700000004e-07,3.5939,1.94315
3.75712671e-07,3.6037,1.9471
3.7714123600000004e-07,3.612856,1.954025
3.7858070600000007e-07,3.6224,1.9606
3.8003120700000003e-07,3.632825,1.962875
3.8149286600000003e-07,3.6443,1.9652
3.82965811e-07,3.65745,1.971531
3.8445017500000003e-07,3.6714,1.9791
3.8594609000000004e-07,3.685306,1.987012
3.87453692e-07,3.6997,1.9936
3.88973118e-07,3.714519,1.995225
3.90504508e-07,3.7307,1.9969
3.9204800400000003e-07,3.749763,2.003819
3.9360375000000003e-07,3.7699,2.0118
3.9517189300000005e-07,3.789088,2.018281
3.9675258000000004e-07,3.8095,2.0236
3.98345964e-07,3.832837,2.026363
3.99952198e-07,3.8585,2.0292
4.0157143700000004e-07,3.886462,2.035725
4.03203842e-07,3.9167,2.0416
4.0484957200000006e-07,3.949481,2.043313
4.06508791e-07,3.9839,2.042
4.08181667e-07,4.018913,2.037406
4.09868368e-07,4.0552,2.0302
4.1156906700000003e-07,4.094306,2.021431
4.13283938e-07,4.1326,2.0097
4.15013159e-07,4.165425,1.993594
4.16756912e-07,4.1974,1.9742
4.1851538000000004e-07,4.233619,1.951638
4.2028875000000003e-07,4.268,1.9274
4.22077213e-07,4.294682,1.902919
4.2388096200000006e-07,4.3181,1.8785
4.25700193e-07,4.341394,1.854962
4.27535108e-07,4.3626,1.8322
4.2938590900000004e-07,4.3789,1.810206
4.3125280400000006e-07,4.396,1.7895
4.3313600500000004e-07,4.420769,1.771325
4.3503572400000006e-07,4.4469,1.7535
4.3695218100000003e-07,4.468806,1.733675
4.3888559700000005e-07,4.4912,1.7136
4.4083620000000005e-07,4.516888,1.695313
4.42804219e-07,4.546,1.6756
4.4478988800000007e-07,4.57965,1.652256
4.4679344600000005e-07,4.6177,1.6243
4.48815136e-07,4.664163,1.589831
4.50855205e-07,4.7077,1.5494
4.52913904e-07,4.734768,1.503181
4.5499149100000004e-07,4.756,1.4504
4.5708822600000005e-07,4.780056,1.388169
4.592043750000001e-07,4.7993,1.323
4.6134020900000004e-07,4.807931,1.261637
4.6349600500000005e-07,4.8091,1.2005
4.65672042e-07,4.804268,1.136112
4.67868609e-07,4.7927,1.0749
4.700859950000001e-07,4.772356,1.02395
4.7232450000000005e-07,4.7486,0.9778
4.74584426e-07,4.726812,0.932944
4.76866082e-07,4.7049,0.8906
4.79169783e-07,4.68325,0.850482
4.8149585e-07,4.6598,0.8136
4.838446100000001e-07,4.630731,0.781506
4.86216397e-07,4.6017,0.7523
4.88611552e-07,4.578669,0.724306
4.910304210000001e-07,4.5569,0.6984
4.93473358e-07,4.532819,0.675138
4.95940725e-07,4.5089,0.6538
4.9843289e-07,4.486719,0.634256
5.00950227e-07,4.4654,0.6153
5.034931220000001e-07,4.444663,0.594863
5.06061964e-07,4.4243,0.5754
5.08657154e-07,4.403875,0.559269
5.11279098e-07,4.3838,0.5447
5.13928213e-07,4.364425,0.530587
5.16604922e-07,4.3455,0.5173
5.1930966e-07,4.326675,0.504969
5.22042869e-07,4.3086,0.4932
5.24805e-07,4.292337,0.481531
5.27596516e-07,4.2763,0.4703
5.30417888e-07,4.258756,0.459763
5.33269597e-07,4.2412,0.4497
5.361521350000001e-07,4.224781,0.439869
5.390660060000001e-07,4.2088,0.4306
5.42011721e-07,4.192725,0.422362
5.449898080000001e-07,4.1772,0.4145
5.48000801e-07,4.162868,0.406244
5.5104525e-07,4.1492,0.3984
5.54123715e-07,4.135938,0.391925
5.5723677e-07,4.1229,0.3856
5.603850000000001e-07,4.109669,0.378138
5.63569006e-07,4.0967,0.3707
5.667894e-07,4.084563,0.364269
5.700468110000001e-07,4.0725,0.3581
5.73341879e-07,4.059612,0.351606
5.76675262e-07,4.0469,0.3453
5.80047632e-07,4.0352,0.339544
5.834596770000001e-07,4.0241,0.3342
5.86912101e-07,4.013644,0.32935
5.904056250000001e-07,4.0033,0.3247
5.93940988e-07,3.992207,0.319919
5.975189460000001e-07,3.9814,0.3152
6.01140273e-07,3.972,0.310581
6.04805762e-07,3.9629,0.3062
6.08516227e-07,3.953137,0.302313
6.122725e-07,3.9434,0.2986
6.160754350000001e-07,3.934088,0.294856
6.19925906e-07,3.9251,0.291
6.23824812e-07,3.916506,0.2867
6.2777307e-07,3.9082,0.2825
6.31771624e-07,3.900181,0.279081
6.358214430000001e-07,3.8922,0.2757
6.39923516e-07,3.883825,0.2716
6.44078864e-07,3.8756,0.2675
6.482885300000001e-07,3.868006,0.263894
6.52553586e-07,3.8608,0.2607
6.56875133e-07,3.853975,0.258106
6.612543e-07,3.8473,0.2558
6.65692249e-07,3.840494,0.253788
6.70190169e-07,3.8337,0.2513
6.74749286e-07,3.826962,0.246925
6.793708560000001e-07,3.8203,0.2426
6.84056173e-07,3.813781,0.240338
6.888065630000001e-07,3.8073,0.2385
6.936233920000001e-07,3.800562,0.235894
6.98508064e-07,3.7942,0.2332
7.034620220000001e-07,3.789075,0.230781
7.084867500000001e-07,3.7842,0.2284
7.135837770000001e-07,3.778669,0.225894
7.18754674e-07,3.7731,0.2234
7.240010590000001e-07,3.767744,0.221331
7.293245960000001e-07,3.7628,0.2187
7.34727e-07,3.759032,0.213938
7.402100380000001e-07,3.755,0.2092
7.457755270000001e-07,3.748937,0.206625
7.51425341e-07,3.7426,0.2047
7.571614120000001e-07,3.737331,0.202563
7.629857310000001e-07,3.7326,0.2004
7.689003490000001e-07,3.728231,0.197975
7.74907383e-07,3.7245,0.1957
7.81009016e-07,3.721869,0.194244
7.872075000000001e-07,3.7196,0.1926
7.935051600000001e-07,3.7171,0.189869
7.999043950000001e-07,3.7144,0.1864
8.06407683e-07,3.711381,0.182063
8.13017582e-07,3.7079,0.1774
8.19736736e-07,3.703819,0.172788
8.26567875e-07,3.699,0.1686
