wavelength[m],n,k
2.3000000000000002e-07,1.265381,3.501322
2.32e-07,1.594793,3.455894
2.34e-07,1.70447,3.42593
2.3600000000000002e-07,1.694706,3.413226
2.3800000000000001e-07,1.672151,3.420043
2.4000000000000003e-07,1.69562,3.445006
2.42e-07,1.688875,3.477798
2.44e-07,1.70009,3.524017
2.46e-07,1.701505,3.583802
2.48e-07,1.698405,3.644785
2.5000000000000004e-07,1.713356,3.689775
2.5200000000000003e-07,1.750639,3.705398
2.54e-07,1.75516,3.842121
2.56e-07,1.770098,3.936614
2.58e-07,1.800296,4.025908
2.6e-07,1.83451,4.118018
2.62e-07,1.880101,4.228687
2.6400000000000003e-07,1.933754,4.349102
2.66e-07,2.00168,4.482396
2.68e-07,2.088116,4.61521
2.7e-07,2.200999,4.755771
2.72e-07,2.349337,4.895677
2.74e-07,2.521078,5.023463
2.7600000000000004e-07,2.710952,5.12794
2.7800000000000003e-07,2.93401,5.21548
2.8e-07,3.158581,5.281462
2.82e-07,3.397136,5.319522
2.84e-07,3.66572,5.349414
2.86e-07,3.957475,5.338569
2.8800000000000004e-07,4.266907,5.259318
2.9000000000000003e-07,4.547875,5.103981
2.92e-07,4.778088,4.892679
2.94e-07,4.936369,4.659598
2.96e-07,5.025358,4.438009
2.98e-07,5.078607,4.238882
3.0000000000000004e-07,5.100845,4.071019
3.0200000000000003e-07,5.117023,3.923983
3.04e-07,5.119356,3.793688
3.06e-07,5.113163,3.68779
3.08e-07,5.110436,3.593673
3.1e-07,5.108898,3.511633
3.1200000000000004e-07,5.104711,3.444561
3.1400000000000003e-07,5.109791,3.38216
3.16e-07,5.114929,3.324409
3.18e-07,5.119865,3.276941
3.2e-07,5.130976,3.231839
3.22e-07,5.13632,3.192885
3.2400000000000004e-07,5.152356,3.149912
3.2600000000000003e-07,5.168497,3.117037
3.28e-07,5.188717,3.08099
3.3e-07,5.210861,3.044999
3.32e-07,5.22432,3.013496
3.34e-07,5.246631,2.986599
3.3600000000000004e-07,5.266722,2.964655
3.3800000000000004e-07,5.290899,2.944502
3.4000000000000003e-07,5.315456,2.925543
3.42e-07,5.348661,2.904434
3.44e-07,5.381575,2.892289
3.46e-07,5.420365,2.884144
3.4800000000000005e-07,5.464093,2.878054
3.5000000000000004e-07,5.517918,2.876323
3.5200000000000003e-07,5.584792,2.881643
3.54e-07,5.668272,2.892956
3.56e-07,5.783062,2.900105
3.58e-07,5.924934,2.897474
3.6000000000000005e-07,6.103157,2.860808
3.6200000000000004e-07,6.300804,2.776184
3.6400000000000003e-07,6.50269,2.631619
3.66e-07,6.675273,2.423737
3.68e-07,6.796278,2.173508
3.7e-07,6.855747,1.904345
3.7200000000000005e-07,6.856317,1.6323
3.7400000000000004e-07,6.806209,1.382284
3.7600000000000003e-07,6.717516,1.163712
3.78e-07,6.602773,0.982391
3.8e-07,6.478052,0.834544
3.82e-07,6.3467,0.712892
3.8400000000000005e-07,6.229778,0.624193
3.8600000000000004e-07,6.124131,0.555269
3.8800000000000003e-07,6.023129,0.495823
3.9e-07,5.930187,0.446432
3.92e-07,5.844566,0.404928
3.94e-07,5.767003,0.370426
3.96e-07,5.691996,0.339642
3.9800000000000004e-07,5.621551,0.313999
4.0000000000000003e-07,5.558685,0.29255
4.02e-07,5.491958,0.271784
4.04e-07,5.433012,0.253875
4.06e-07,5.37861,0.238343
4.08e-07,5.327485,0.224067
4.1000000000000004e-07,5.278825,0.211365
4.1200000000000004e-07,5.232571,0.198994
4.1400000000000003e-07,5.188302,0.18891
4.16e-07,5.144191,0.179766
4.18e-07,5.104696,0.171766
4.2e-07,5.068051,0.163402
4.2200000000000005e-07,5.034971,0.156417
4.2400000000000004e-07,5.000371,0.149448
4.2600000000000003e-07,4.967833,0.142571
4.28e-07,4.937166,0.136861
4.3e-07,4.90805,0.131306
4.32e-07,4.879095,0.126128
4.3400000000000005e-07,4.85058,0.121463
4.3600000000000004e-07,4.824311,0.116966
4.3800000000000003e-07,4.804978,0.112578
4.4e-07,4.780645,0.107918
4.42e-07,4.75488,0.104718
4.44e-07,4.731524,0.100831
4.4600000000000005e-07,4.709342,0.097579
4.4800000000000004e-07,4.686438,0.094187
4.5000000000000003e-07,4.664295,0.092175
4.52e-07,4.644697,0.088493
4.54e-07,4.624613,0.085682
4.56e-07,4.604647,0.08316
4.5800000000000005e-07,4.585048,0.080818
4.6000000000000004e-07,4.566155,0.078509
4.6200000000000003e-07,4.548366,0.076065
4.64e-07,4.531171,0.073689
4.66e-07,4.51419,0.071504
4.68e-07,4.497543,0.069497
4.7000000000000005e-07,4.481483,0.067653
4.7200000000000004e-07,4.466208,0.065987
4.7400000000000004e-07,4.451319,0.064381
4.7600000000000003e-07,4.436428,0.06269
4.78e-07,4.421669,0.060961
4.800000000000001e-07,4.407305,0.059267
4.82e-07,4.393543,0.057647
4.84e-07,4.380029,0.05613
4.86e-07,4.366269,0.054821
4.88e-07,4.352648,0.053635
4.900000000000001e-07,4.339802,0.052438
4.92e-07,4.328294,0.05111
4.940000000000001e-07,4.317393,0.049789
4.96e-07,4.306788,0.048535
4.98e-07,4.296275,0.047366
5.000000000000001e-07,4.285552,0.046315
5.02e-07,4.274235,0.045437
5.040000000000001e-07,4.263006,0.04457
5.06e-07,4.252447,0.043525
5.08e-07,4.242415,0.042388
5.1e-07,4.232628,0.041306
5.12e-07,4.222904,0.040388
5.140000000000001e-07,4.213465,0.039542
5.16e-07,4.204567,0.038759
5.180000000000001e-07,4.196002,0.038006
5.2e-07,4.187396,0.037231
5.22e-07,4.178396,0.03638
5.24e-07,4.169638,0.035543
5.26e-07,4.161838,0.034805
5.280000000000001e-07,4.15459,0.034131
5.3e-07,4.147209,0.03345
5.32e-07,4.139132,0.032705
5.34e-07,4.131012,0.031998
5.36e-07,4.123247,0.031408
5.380000000000001e-07,4.11577,0.030925
5.4e-07,4.108432,0.030547
5.420000000000001e-07,4.101161,0.0303
5.44e-07,4.094016,0.030011
5.46e-07,4.087017,0.029429
5.48e-07,4.080168,0.028686
5.5e-07,4.073502,0.028002
5.520000000000001e-07,4.06707,0.027559
5.54e-07,4.060646,0.027135
5.560000000000001e-07,4.05388,0.026529
5.58e-07,4.046992,0.025863
5.6e-07,4.040331,0.025345
5.620000000000001e-07,4.034175,0.025157
5.64e-07,4.028309,0.025038
5.660000000000001e-07,4.022802,0.024812
5.68e-07,4.017446,0.024493
5.7e-07,4.011914,0.024127
5.72e-07,4.005879,0.023728
5.74e-07,3.999804,0.023258
5.760000000000001e-07,3.994021,0.022598
5.78e-07,3.988466,0.021887
5.800000000000001e-07,3.982999,0.021344
5.82e-07,3.977539,0.021174
5.84e-07,3.972182,0.021112
5.860000000000001e-07,3.966985,0.021024
5.88e-07,3.96194,0.020875
5.900000000000001e-07,3.957025,0.020631
5.92e-07,3.95223,0.020229
5.94e-07,3.947571,0.019752
5.96e-07,3.943105,0.019192
5.98e-07,3.938757,0.018646
6.000000000000001e-07,3.934402,0.018267
6.02e-07,3.929917,0.018205
6.040000000000001e-07,3.9255,0.018268
6.06e-07,3.921362,0.018409
6.08e-07,3.917384,0.018518
6.100000000000001e-07,3.913357,0.018414
6.12e-07,3.909107,0.017891
6.140000000000001e-07,3.904861,0.017343
6.16e-07,3.900753,0.017176
6.180000000000001e-07,3.896786,0.017211
6.2e-07,3.892939,0.017116
6.22e-07,3.889214,0.016626
6.240000000000001e-07,3.88564,0.016128
6.26e-07,3.8824,0.015961
6.280000000000001e-07,3.879254,0.015985
6.3e-07,3.875787,0.015964
6.32e-07,3.871587,0.015727
6.340000000000001e-07,3.867403,0.015408
6.36e-07,3.863936,0.014969
6.380000000000001e-07,3.860934,0.014537
6.4e-07,3.857963,0.014341
6.420000000000001e-07,3.854726,0.014628
6.44e-07,3.851409,0.014873
6.46e-07,3.847959,0.014454
6.480000000000001e-07,3.844492,0.013708
6.5e-07,3.8412,0.013218
6.520000000000001e-07,3.838281,0.01347
6.54e-07,3.835387,0.013815
6.56e-07,3.832151,0.013755
6.58e-07,3.828756,0.013448
6.6e-07,3.825507,0.013199
6.620000000000001e-07,3.822652,0.01323
6.64e-07,3.819912,0.013226
6.660000000000001e-07,3.817123,0.01292
6.68e-07,3.814316,0.012423
6.7e-07,3.811573,0.011905
6.720000000000001e-07,3.808956,0.011475
6.74e-07,3.806311,0.011162
6.760000000000001e-07,3.803461,0.011162
6.78e-07,3.800488,0.011314
6.800000000000001e-07,3.797501,0.011358
6.82e-07,3.794562,0.011067
6.84e-07,3.791786,0.010708
6.860000000000001e-07,3.789468,0.010421
6.88e-07,3.787389,0.010215
6.900000000000001e-07,3.785174,0.010079
6.92e-07,3.782479,0.010025
6.94e-07,3.779845,0.010067
6.960000000000001e-07,3.777762,0.010316
6.98e-07,3.776033,0.010628
7.000000000000001e-07,3.774362,0.010786
7.02e-07,3.772576,0.010596
7.040000000000001e-07,3.770504,0.010235
7.06e-07,3.767601,0.009662
7.08e-07,3.76428,0.00906
7.100000000000001e-07,3.761196,0.008692
7.12e-07,3.7589,0.008818
7.140000000000001e-07,3.756875,0.009165
7.16e-07,3.754982,0.009783
7.18e-07,3.753093,0.010376
7.200000000000001e-07,3.751016,0.010451
7.22e-07,3.748514,0.009479
7.240000000000001e-07,3.746019,0.008452
7.26e-07,3.743851,0.008313
7.280000000000001e-07,3.741998,0.008727
7.3e-07,3.740471,0.009115
7.32e-07,3.739387,0.009081
7.340000000000001e-07,3.738151,0.008886
7.36e-07,3.735943,0.008401
7.380000000000001e-07,3.733187,0.007895
7.4e-07,3.730579,0.007868
7.420000000000001e-07,3.728658,0.008857
7.440000000000001e-07,3.726974,0.009674
7.46e-07,3.725447,0.008881
7.480000000000001e-07,3.723956,0.007284
7.5e-07,3.722321,0.006278
7.520000000000001e-07,3.720339,0.00704
7.54e-07,3.718304,0.007975
7.56e-07,3.716485,0.007821
7.580000000000001e-07,3.714752,0.007024
7.6e-07,3.712819,0.00638
7.620000000000001e-07,3.710404,0.006453
7.64e-07,3.708244,0.006709
7.660000000000001e-07,3.707404,0.006964
7.680000000000001e-07,3.707153,0.007145
7.7e-07,3.706238,0.007151
7.720000000000001e-07,3.70355,0.00683
7.74e-07,3.700695,0.006487
7.760000000000001e-07,3.699225,0.006411
7.78e-07,3.698319,0.006506
7.8e-07,3.696437,0.006604
7.820000000000001e-07,3.692217,0.006596
7.84e-07,3.688134,0.006531
7.860000000000001e-07,3.686579,0.006362
7.88e-07,3.68661,0.006149
7.900000000000001e-07,3.686623,0.005996
7.92e-07,3.68548,0.006005
7.94e-07,3.683995,0.00601
7.960000000000001e-07,3.681987,0.005832
7.98e-07,3.68004,0.005572
8.000000000000001e-07,3.679196,0.005389
8.02e-07,3.680582,0.005408
8.04e-07,3.681823,0.00554
8.060000000000001e-07,3.680536,0.005824
8.08e-07,3.677603,0.006164
8.100000000000001e-07,3.674517,0.006435
8.12e-07,3.67229,0.006524
8.140000000000001e-07,3.670398,0.006455
8.16e-07,3.668966,0.00606
8.18e-07,3.667861,0.005538
8.200000000000001e-07,3.666953,0.005233
8.22e-07,3.666175,0.005486
8.240000000000001e-07,3.665116,0.005689
8.26e-07,3.662902,0.005155
8.280000000000001e-07,3.660172,0.004277
8.300000000000001e-07,3.657872,0.003723
8.32e-07,3.656745,0.004052
8.340000000000001e-07,3.656556,0.004554
8.36e-07,3.657421,0.004973
8.380000000000001e-07,3.659455,0.005053
8.4e-07,3.662772,0.004537
