wavelength[m],n,k
2.4000000000000003e-07,1.6378,3.233
2.42e-07,1.6374,3.2513
2.44e-07,1.6405,3.2598
2.46e-07,1.6577,3.348
2.48e-07,1.6761,3.405
2.5000000000000004e-07,1.6875,3.4568
2.5200000000000003e-07,1.7172,3.5103
2.54e-07,1.7678,3.5852
2.56e-07,1.7825,3.6462
2.58e-07,1.8259,3.719
2.6e-07,1.8705,3.7812
2.62e-07,1.9053,3.8655
2.6400000000000003e-07,1.9544,3.9433
2.66e-07,2.0189,4.0205
2.68e-07,2.088,4.1114
2.7e-07,2.1547,4.1983
2.72e-07,2.2481,4.2981
2.74e-07,2.3563,4.3913
2.7600000000000004e-07,2.4781,4.4812
2.7800000000000003e-07,2.6083,4.5697
2.8e-07,2.7819,4.6575
2.82e-07,2.9751,4.7301
2.84e-07,3.1869,4.7549
2.86e-07,3.4259,4.751
2.8800000000000004e-07,3.6734,4.6889
2.9000000000000003e-07,3.8799,4.5852
2.92e-07,4.0445,4.4526
2.94e-07,4.1708,4.3096
2.96e-07,4.2805,4.1586
2.98e-07,4.3326,4.0211
3.0000000000000004e-07,4.3842,3.897
3.0200000000000003e-07,4.423913,3.774119
3.04e-07,4.4475,3.67
3.06e-07,4.459763,3.580781
3.08e-07,4.4655,3.5026
3.1e-07,4.471363,3.42985
3.1200000000000004e-07,4.4766,3.3639
3.1400000000000003e-07,4.482931,3.304794
3.16e-07,4.4896,3.2509
3.18e-07,4.496169,3.200663
3.2e-07,4.5034,3.1539
3.22e-07,4.512568,3.109812
3.2400000000000004e-07,4.5217,3.0687
3.2600000000000003e-07,4.528631,3.03085
3.28e-07,4.5352,2.9955
3.3e-07,4.542513,2.961781
3.32e-07,4.5506,2.9303
3.34e-07,4.56065,2.9014
3.3600000000000004e-07,4.5703,2.875
3.3800000000000004e-07,4.576138,2.851906
3.4000000000000003e-07,4.5825,2.8298
3.42e-07,4.594156,2.805675
3.44e-07,4.6064,2.7824
3.46e-07,4.614494,2.762694
3.4800000000000005e-07,4.6233,2.744
3.5000000000000004e-07,4.637119,2.724206
3.5200000000000003e-07,4.6529,2.7047
3.54e-07,4.669106,2.686081
3.56e-07,4.6855,2.6686
3.58e-07,4.7007,2.653112
3.6000000000000005e-07,4.7166,2.6384
3.6200000000000004e-07,4.7348,2.623694
3.6400000000000003e-07,4.7548,2.6085
3.66e-07,4.776994,2.592212
3.68e-07,4.8003,2.5744
3.7e-07,4.823675,2.55425
3.7200000000000005e-07,4.8474,2.5323
3.7400000000000004e-07,4.871757,2.508087
3.7600000000000003e-07,4.8957,2.4838
3.78e-07,4.917831,2.462706
3.8e-07,4.9395,2.4411
3.82e-07,4.962181,2.415412
3.8400000000000005e-07,4.9841,2.3885
3.8600000000000004e-07,5.003631,2.362287
3.8800000000000003e-07,5.0218,2.336
3.9e-07,5.039,2.309144
3.92e-07,5.0555,2.2828
3.94e-07,5.071425,2.257762
3.96e-07,5.0876,2.2344
3.9800000000000004e-07,5.105119,2.213631
4.0000000000000003e-07,5.1233,2.1946
4.02e-07,5.141212,2.177113
4.04e-07,5.1607,2.1601
4.06e-07,5.183625,2.142413
4.08e-07,5.209,2.1241
4.1000000000000004e-07,5.236568,2.104925
4.1200000000000004e-07,5.266,2.0846
4.1400000000000003e-07,5.296756,2.063138
4.16e-07,5.3292,2.0394
4.18e-07,5.363469,2.012537
4.2e-07,5.3997,1.9817
4.2200000000000005e-07,5.435773,1.946391
4.2400000000000004e-07,5.471272,1.907778
4.2600000000000003e-07,5.505815,1.865998
4.28e-07,5.539018,1.821193
4.3e-07,5.5705,1.7735
4.32e-07,5.599878,1.723059
4.3400000000000005e-07,5.626769,1.67001
4.3600000000000004e-07,5.650791,1.614491
4.3800000000000003e-07,5.671563,1.556641
4.4e-07,5.6887,1.4966
4.42e-07,5.700424,1.432456
4.44e-07,5.708098,1.366912
4.4600000000000005e-07,5.71169,1.300619
4.4800000000000004e-07,5.711169,1.234231
4.5000000000000003e-07,5.7065,1.1684
4.52e-07,5.69616,1.104918
4.54e-07,5.68198,1.043011
4.56e-07,5.6643,0.983045
4.5800000000000005e-07,5.64346,0.925386
4.6000000000000004e-07,5.6198,0.8704
4.6200000000000003e-07,5.593305,0.820074
4.64e-07,5.564759,0.772749
4.66e-07,5.53459,0.728388
4.68e-07,5.503227,0.686951
4.7000000000000005e-07,5.4711,0.6484
4.7200000000000004e-07,5.439626,0.613203
4.7400000000000004e-07,5.407997,0.580689
4.7600000000000003e-07,5.376395,0.550694
4.78e-07,5.345003,0.523053
4.800000000000001e-07,5.314,0.4976
4.82e-07,5.284014,0.474328
4.84e-07,5.254672,0.452876
4.86e-07,5.226041,0.43304
4.88e-07,5.198193,0.414616
4.900000000000001e-07,5.1712,0.3974
4.92e-07,5.145549,0.38057
4.940000000000001e-07,5.120789,0.364695
4.96e-07,5.096883,0.349725
4.98e-07,5.073798,0.33561
5.000000000000001e-07,5.0515,0.3223
5.02e-07,5.030216,0.309609
5.040000000000001e-07,5.009584,0.297658
5.06e-07,4.989504,0.286434
5.08e-07,4.969876,0.275919
5.1e-07,4.9506,0.2661
5.12e-07,4.930891,0.257143
5.140000000000001e-07,4.911506,0.248806
5.16e-07,4.892515,0.241026
5.180000000000001e-07,4.873989,0.233745
5.2e-07,4.856,0.2269
5.22e-07,4.83924,0.220306
5.24e-07,4.823004,0.214059
5.26e-07,4.807208,0.208129
5.280000000000001e-07,4.791768,0.202486
5.3e-07,4.7766,0.1971
5.32e-07,4.760938,0.191882
5.34e-07,4.745551,0.186877
5.36e-07,4.730525,0.182071
5.380000000000001e-07,4.715946,0.17745
5.4e-07,4.7019,0.173
5.420000000000001e-07,4.689281,0.168648
5.44e-07,4.677166,0.164452
5.46e-07,4.665442,0.160412
5.48e-07,4.653992,0.156528
5.5e-07,4.6427,0.1528
5.520000000000001e-07,4.630711,0.149292
5.54e-07,4.618835,0.145924
5.560000000000001e-07,4.607145,0.14268
5.58e-07,4.595709,0.139544
5.6e-07,4.5846,0.1365
5.620000000000001e-07,4.574613,0.133599
5.64e-07,4.56491,0.130742
5.660000000000001e-07,4.555382,0.127894
5.68e-07,4.545915,0.125025
5.7e-07,4.5364,0.1221
5.72e-07,4.525864,0.118687
5.74e-07,4.515272,0.115254
5.760000000000001e-07,4.504728,0.111866
5.78e-07,4.494336,0.108593
5.800000000000001e-07,4.4842,0.1055
5.82e-07,4.475022,0.103142
5.84e-07,4.466159,0.100977
5.860000000000001e-07,4.457565,0.098951
5.88e-07,4.449193,0.09701
5.900000000000001e-07,4.441,0.0951
5.92e-07,4.432855,0.092746
5.94e-07,4.424818,0.090419
5.96e-07,4.416862,0.088169
5.98e-07,4.408965,0.086046
6.000000000000001e-07,4.4011,0.0841
6.02e-07,4.392917,0.082802
6.040000000000001e-07,4.384799,0.081677
6.06e-07,4.376801,0.080671
6.08e-07,4.368983,0.07973
6.100000000000001e-07,4.3614,0.0788
6.12e-07,4.354803,0.077528
6.140000000000001e-07,4.348382,0.076232
6.16e-07,4.342019,0.074932
6.180000000000001e-07,4.335597,0.073648
6.2e-07,4.329,0.0724
6.22e-07,4.320972,0.071237
6.240000000000001e-07,4.31282,0.070142
6.26e-07,4.304712,0.06913
6.280000000000001e-07,4.296816,0.068211
6.3e-07,4.2893,0.0674
6.32e-07,4.283263,0.066914
6.340000000000001e-07,4.277709,0.066509
6.36e-07,4.272574,0.066147
6.380000000000001e-07,4.267793,0.06579
6.4e-07,4.2633,0.0654
6.420000000000001e-07,4.259127,0.06479
6.44e-07,4.255089,0.064107
6.46e-07,4.251098,0.063349
6.480000000000001e-07,4.247065,0.062514
6.5e-07,4.2429,0.0616
6.520000000000001e-07,4.237789,0.060642
6.54e-07,4.232551,0.059593
6.56e-07,4.227278,0.058443
6.58e-07,4.222064,0.057182
6.6e-07,4.217,0.0558
6.620000000000001e-07,4.212975,0.053873
6.64e-07,4.209087,0.051906
6.660000000000001e-07,4.205233,0.049994
6.68e-07,4.201305,0.048227
6.7e-07,4.1972,0.0467
6.720000000000001e-07,4.192145,0.04617
6.74e-07,4.186866,0.045899
6.760000000000001e-07,4.181426,0.045813
6.78e-07,4.175883,0.045838
6.800000000000001e-07,4.1703,0.0459
6.82e-07,4.16467,0.045558
6.84e-07,4.159137,0.045199
6.860000000000001e-07,4.153779,0.044841
6.88e-07,4.148674,0.044502
6.900000000000001e-07,4.1439,0.0442
6.92e-07,4.14011,0.044172
6.94e-07,4.136661,0.044164
6.960000000000001e-07,4.133487,0.04414
6.98e-07,4.130522,0.044064
7.000000000000001e-07,4.1277,0.0439
7.02e-07,4.12495,0.043282
7.040000000000001e-07,4.122211,0.042587
7.06e-07,4.119417,0.041861
7.08e-07,4.116501,0.04115
7.100000000000001e-07,4.1134,0.0405
7.12e-07,4.109313,0.040275
7.140000000000001e-07,4.105093,0.040126
7.16e-07,4.100855,0.040018
7.18e-07,4.096719,0.039921
7.200000000000001e-07,4.0928,0.0398
7.22e-07,4.090107,0.039495
7.240000000000001e-07,4.087646,0.039134
7.26e-07,4.08531,0.038714
7.280000000000001e-07,4.082997,0.038237
7.3e-07,4.0806,0.0377
7.32e-07,4.07733,0.037014
7.340000000000001e-07,4.073939,0.036289
7.36e-07,4.070493,0.035547
7.380000000000001e-07,4.067058,0.03481
7.4e-07,4.0637,0.0341
7.420000000000001e-07,4.060851,0.033578
7.440000000000001e-07,4.058122,0.033091
7.46e-07,4.055486,0.032625
7.480000000000001e-07,4.05292,0.032166
7.5e-07,4.0504,0.0317
7.520000000000001e-07,4.047688,0.031109
7.54e-07,4.045024,0.03051
7.56e-07,4.042436,0.029918
7.580000000000001e-07,4.039952,0.029343
7.6e-07,4.0376,0.0288
7.620000000000001e-07,4.035926,0.028378
7.64e-07,4.034311,0.027993
7.660000000000001e-07,4.032653,0.027639
7.680000000000001e-07,4.030849,0.02731
7.7e-07,4.0288,0.027
7.720000000000001e-07,4.025458,0.026743
7.74e-07,4.021903,0.026482
7.760000000000001e-07,4.018269,0.026198
7.78e-07,4.014689,0.025877
7.8e-07,4.0113,0.0255
7.820000000000001e-07,4.009063,0.024914
7.84e-07,4.007078,0.024273
7.860000000000001e-07,4.00527,0.023595
7.88e-07,4.003569,0.022898
7.900000000000001e-07,4.0019,0.0222
7.92e-07,4.000099,0.021364
7.94e-07,3.998207,0.0206
7.960000000000001e-07,3.996177,0.019964
7.98e-07,3.993958,0.019512
8.000000000000001e-07,3.9915,0.0193
8.02e-07,3.987894,0.020021
8.04e-07,3.984165,0.020934
8.060000000000001e-07,3.980479,0.021938
8.08e-07,3.977002,0.022927
8.100000000000001e-07,3.9739,0.0238
8.12e-07,3.973091,0.024014
8.140000000000001e-07,3.97255,0.024015
8.16e-07,3.972003,0.023809
8.18e-07,3.971177,0.023402
8.200000000000001e-07,3.9698,0.0228
8.22e-07,3.965388,0.021306
8.240000000000001e-07,3.960432,0.019807
8.26e-07,3.955212,0.018485
8.280000000000001e-07,3.950008,0.017522
8.300000000000001e-07,3.9451,0.0171
8.32e-07,3.940768,0.017402
8.340000000000001e-07,3.937292,0.018611
8.36e-07,3.934952,0.020909
8.380000000000001e-07,3.934028,0.024478
8.4e-07,3.9348,0.0295
