wavelength[m],n,k
2.4000000000000003e-07,1.7538,3.2658
2.42e-07,1.7237,3.3179
2.44e-07,1.7035,3.3431
2.46e-07,1.7117,3.3816
2.48e-07,1.7278,3.447
2.5000000000000004e-07,1.752,3.5053
2.5200000000000003e-07,1.79,3.5643
2.54e-07,1.827,3.637
2.56e-07,1.8611,3.7103
2.58e-07,1.9101,3.7657
2.6e-07,1.9528,3.8498
2.62e-07,2.0071,3.9124
2.6400000000000003e-07,2.0703,3.9886
2.66e-07,2.1324,4.0782
2.68e-07,2.2123,4.168
2.7e-07,2.2973,4.2583
2.72e-07,2.3995,4.3425
2.74e-07,2.5098,4.4273
2.7600000000000004e-07,2.647,4.5218
2.7800000000000003e-07,2.8057,4.596
2.8e-07,2.9903,4.6751
2.82e-07,3.2056,4.7188
2.84e-07,3.4363,4.7215
2.86e-07,3.6797,4.6788
2.8800000000000004e-07,3.8959,4.5845
2.9000000000000003e-07,4.0975,4.4518
2.92e-07,4.2374,4.3042
2.94e-07,4.3572,4.1404
2.96e-07,4.4249,3.9899
2.98e-07,4.4836,3.8448
3.0000000000000004e-07,4.5082,3.7206
3.0200000000000003e-07,4.527131,3.605338
3.04e-07,4.5404,3.5017
3.06e-07,4.548869,3.409087
3.08e-07,4.5534,3.3269
3.1e-07,4.554425,3.255213
3.1200000000000004e-07,4.5541,3.1914
3.1400000000000003e-07,4.554931,3.13295
3.16e-07,4.5563,3.0796
3.18e-07,4.558519,3.030126
3.2e-07,4.5613,2.9849
3.22e-07,4.564543,2.944725
3.2400000000000004e-07,4.568,2.9071
3.2600000000000003e-07,4.571281,2.869212
3.28e-07,4.5747,2.8328
3.3e-07,4.578475,2.798587
3.32e-07,4.5825,2.7668
3.34e-07,4.586675,2.738431
3.3600000000000004e-07,4.5912,2.7119
3.3800000000000004e-07,4.595887,2.685806
3.4000000000000003e-07,4.6018,2.6606
3.42e-07,4.610806,2.6361
3.44e-07,4.6203,2.6128
3.46e-07,4.627481,2.591413
3.4800000000000005e-07,4.6348,2.5711
3.5000000000000004e-07,4.643718,2.551281
3.5200000000000003e-07,4.6544,2.5319
3.54e-07,4.668106,2.512669
3.56e-07,4.683,2.4937
3.58e-07,4.697218,2.475269
3.6000000000000005e-07,4.7121,2.4566
3.6200000000000004e-07,4.728325,2.4368
3.6400000000000003e-07,4.746,2.4165
3.66e-07,4.766,2.396331
3.68e-07,4.7867,2.3754
3.7e-07,4.806925,2.353287
3.7200000000000005e-07,4.8262,2.3292
3.7400000000000004e-07,4.843525,2.301787
3.7600000000000003e-07,4.8593,2.2723
3.78e-07,4.873725,2.240744
3.8e-07,4.8864,2.2095
3.82e-07,4.896613,2.181725
3.8400000000000005e-07,4.9055,2.1551
3.8600000000000004e-07,4.9139,2.128375
3.8800000000000003e-07,4.922,2.1015
3.9e-07,4.930594,2.073394
3.92e-07,4.9387,2.0459
3.94e-07,4.945556,2.020344
3.96e-07,4.9513,1.9972
3.9800000000000004e-07,4.955031,1.978094
4.0000000000000003e-07,4.9591,1.9609
4.02e-07,4.965969,1.943625
4.04e-07,4.9744,1.9275
4.06e-07,4.983869,1.913444
4.08e-07,4.9947,1.9004
4.1000000000000004e-07,5.006918,1.887712
4.1200000000000004e-07,5.0209,1.8751
4.1400000000000003e-07,5.0371,1.861969
4.16e-07,5.0553,1.8486
4.18e-07,5.07545,1.835056
4.2e-07,5.0975,1.8214
4.2200000000000005e-07,5.121949,1.805117
4.2400000000000004e-07,5.147116,1.786794
4.2600000000000003e-07,5.172839,1.766394
4.28e-07,5.198954,1.743875
4.3e-07,5.2253,1.7192
4.32e-07,5.251714,1.692329
4.3400000000000005e-07,5.278032,1.663223
4.3600000000000004e-07,5.304095,1.631842
4.3800000000000003e-07,5.329739,1.598147
4.4e-07,5.3548,1.5621
4.42e-07,5.37978,1.523664
4.44e-07,5.403688,1.482796
4.4600000000000005e-07,5.426197,1.439456
4.4800000000000004e-07,5.446977,1.393603
4.5000000000000003e-07,5.4657,1.3452
4.52e-07,5.482687,1.29207
4.54e-07,5.496799,1.236841
4.56e-07,5.507549,1.180007
4.5800000000000005e-07,5.514446,1.122062
4.6000000000000004e-07,5.517,1.0635
4.6200000000000003e-07,5.511052,1.004106
4.64e-07,5.5007,0.94526
4.66e-07,5.486372,0.887629
4.68e-07,5.468496,0.831886
4.7000000000000005e-07,5.4475,0.7787
4.7200000000000004e-07,5.423742,0.731901
4.7400000000000004e-07,5.397737,0.68821
4.7600000000000003e-07,5.369931,0.647509
4.78e-07,5.34077,0.609679
4.800000000000001e-07,5.3107,0.5746
4.82e-07,5.280751,0.542281
4.84e-07,5.250638,0.512442
4.86e-07,5.220659,0.484934
4.88e-07,5.191113,0.459603
4.900000000000001e-07,5.1623,0.4363
4.92e-07,5.13594,0.414927
4.940000000000001e-07,5.110556,0.395266
4.96e-07,5.086092,0.377151
4.98e-07,5.062492,0.360417
5.000000000000001e-07,5.0397,0.3449
5.02e-07,5.017926,0.330269
5.040000000000001e-07,4.996781,0.316566
5.06e-07,4.976143,0.30367
5.08e-07,4.95589,0.291455
5.1e-07,4.9359,0.2798
5.12e-07,4.915272,0.267809
5.140000000000001e-07,4.894856,0.256325
5.16e-07,4.874724,0.245415
5.180000000000001e-07,4.854948,0.23515
5.2e-07,4.8356,0.2256
5.22e-07,4.817033,0.217266
5.24e-07,4.798968,0.209677
5.26e-07,4.781407,0.202795
5.280000000000001e-07,4.76435,0.196582
5.3e-07,4.7478,0.191
5.32e-07,4.731729,0.186333
5.34e-07,4.716175,0.182138
5.36e-07,4.701146,0.178298
5.380000000000001e-07,4.686651,0.174691
5.4e-07,4.6727,0.1712
5.420000000000001e-07,4.659458,0.167401
5.44e-07,4.646737,0.163554
5.46e-07,4.634507,0.159618
5.48e-07,4.622739,0.155547
5.5e-07,4.6114,0.1513
5.520000000000001e-07,4.600865,0.146574
5.54e-07,4.590599,0.141649
5.560000000000001e-07,4.58047,0.136547
5.58e-07,4.570347,0.13129
5.6e-07,4.5601,0.1259
5.620000000000001e-07,4.548925,0.119819
5.64e-07,4.53753,0.113791
5.660000000000001e-07,4.525954,0.107985
5.68e-07,4.514231,0.102566
5.7e-07,4.5024,0.0977
5.72e-07,4.490298,0.094623
5.74e-07,4.478211,0.092166
5.760000000000001e-07,4.466225,0.090226
5.78e-07,4.454425,0.088705
5.800000000000001e-07,4.4429,0.0875
5.82e-07,4.432224,0.086226
5.84e-07,4.421872,0.085139
5.860000000000001e-07,4.411808,0.084209
5.88e-07,4.401996,0.083406
5.900000000000001e-07,4.3924,0.0827
5.92e-07,4.382603,0.081864
5.94e-07,4.373045,0.081116
5.96e-07,4.363786,0.080476
5.98e-07,4.354885,0.079964
6.000000000000001e-07,4.3464,0.0796
6.02e-07,4.338702,0.079753
6.040000000000001e-07,4.331461,0.080006
6.06e-07,4.324659,0.080294
6.08e-07,4.318279,0.080547
6.100000000000001e-07,4.3123,0.0807
6.12e-07,4.307234,0.080397
6.140000000000001e-07,4.302401,0.07993
6.16e-07,4.297651,0.079306
6.180000000000001e-07,4.292834,0.078527
6.2e-07,4.2878,0.0776
6.22e-07,4.281255,0.076538
6.240000000000001e-07,4.274477,0.075335
6.26e-07,4.267602,0.073993
6.280000000000001e-07,4.260765,0.072514
6.3e-07,4.2541,0.0709
6.32e-07,4.248421,0.06886
6.340000000000001e-07,4.243017,0.066764
6.36e-07,4.237851,0.064688
6.380000000000001e-07,4.23289,0.062708
6.4e-07,4.2281,0.0609
6.420000000000001e-07,4.22342,0.059839
6.44e-07,4.218848,0.058978
6.46e-07,4.214356,0.058266
6.480000000000001e-07,4.209916,0.057657
6.5e-07,4.2055,0.0571
6.520000000000001e-07,4.200923,0.056522
6.54e-07,4.196354,0.055905
6.56e-07,4.191803,0.055207
6.58e-07,4.187281,0.054386
6.6e-07,4.1828,0.0534
6.620000000000001e-07,4.178342,0.051956
6.64e-07,4.173955,0.050324
6.660000000000001e-07,4.169656,0.048524
6.68e-07,4.165465,0.046576
6.7e-07,4.1614,0.0445
6.720000000000001e-07,4.157984,0.042268
6.74e-07,4.154604,0.03996
6.760000000000001e-07,4.151152,0.037608
6.78e-07,4.14752,0.035244
6.800000000000001e-07,4.1436,0.0329
6.82e-07,4.138644,0.030403
6.84e-07,4.133344,0.028042
6.860000000000001e-07,4.127752,0.025898
6.88e-07,4.12192,0.024057
6.900000000000001e-07,4.1159,0.0226
6.92e-07,4.109373,0.022238
6.94e-07,4.102854,0.022271
6.960000000000001e-07,4.096489,0.022625
6.98e-07,4.090423,0.023226
7.000000000000001e-07,4.0848,0.024
7.02e-07,4.080881,0.024788
7.040000000000001e-07,4.077416,0.025624
7.06e-07,4.074271,0.026456
7.08e-07,4.07131,0.027232
7.100000000000001e-07,4.0684,0.0279
7.12e-07,4.064641,0.028053
7.140000000000001e-07,4.060854,0.028082
7.16e-07,4.057097,0.028026
7.18e-07,4.053427,0.027919
7.200000000000001e-07,4.0499,0.0278
7.22e-07,4.047037,0.028066
7.240000000000001e-07,4.044314,0.028303
7.26e-07,4.041673,0.028457
7.280000000000001e-07,4.039055,0.028474
7.3e-07,4.0364,0.0283
7.32e-07,4.03336,0.027374
7.340000000000001e-07,4.030238,0.026277
7.36e-07,4.027046,0.025083
7.380000000000001e-07,4.023795,0.023866
7.4e-07,4.0205,0.0227
7.420000000000001e-07,4.017266,0.022013
7.440000000000001e-07,4.013989,0.021434
7.46e-07,4.010659,0.02095
7.480000000000001e-07,4.007266,0.020543
7.5e-07,4.0038,0.0202
7.520000000000001e-07,3.999981,0.019818
7.54e-07,3.996134,0.019491
7.56e-07,3.992317,0.019225
7.580000000000001e-07,3.988587,0.019026
7.6e-07,3.985,0.0189
7.620000000000001e-07,3.982009,0.018717
7.64e-07,3.979177,0.018654
7.660000000000001e-07,3.976459,0.018754
7.680000000000001e-07,3.973814,0.019055
7.7e-07,3.9712,0.0196
7.720000000000001e-07,3.968103,0.020931
7.74e-07,3.965069,0.022462
7.760000000000001e-07,3.962174,0.024106
7.78e-07,3.959493,0.025781
7.8e-07,3.9571,0.0274
7.820000000000001e-07,3.955423,0.028726
7.84e-07,3.954098,0.029865
7.860000000000001e-07,3.95311,0.030771
7.88e-07,3.952449,0.031398
7.900000000000001e-07,3.9521,0.0317
7.92e-07,3.952467,0.031166
7.94e-07,3.953018,0.030329
7.960000000000001e-07,3.953634,0.029259
7.98e-07,3.954201,0.028026
8.000000000000001e-07,3.9546,0.0267
8.02e-07,3.95389,0.025586
8.04e-07,3.952985,0.024459
8.060000000000001e-07,3.951975,0.023329
8.08e-07,3.95095,0.022206
8.100000000000001e-07,3.95,0.0211
8.12e-07,3.950522,0.019936
8.140000000000001e-07,3.950971,0.018832
8.16e-07,3.951109,0.01782
8.18e-07,3.950698,0.016932
8.200000000000001e-07,3.9495,0.0162
8.22e-07,3.945973,0.015643
8.240000000000001e-07,3.94151,0.01531
8.26e-07,3.936202,0.015234
8.280000000000001e-07,3.930135,0.015453
8.300000000000001e-07,3.9234,0.016
8.32e-07,3.916085,0.016911
8.340000000000001e-07,3.908278,0.018222
8.36e-07,3.900069,0.019966
8.380000000000001e-07,3.891547,0.022181
8.4e-07,3.8828,0.0249
