wavelength[m],n,k
1.8000000000000002e-07,1.20774,2.065205
1.9e-07,1.316755,2.260065
2.0000000000000002e-07,1.48,2.45
2.1e-07,1.720912,2.598338
2.2e-07,2.016951,2.66775
2.3000000000000002e-07,2.321471,2.604213
2.4000000000000003e-07,2.54161,2.400758
2.5000000000000004e-07,2.572579,2.154195
2.6e-07,2.480464,2.088274
2.7e-07,2.414541,2.052975
2.8e-07,2.372254,2.04366
2.9000000000000003e-07,2.351044,2.055692
3.0000000000000004e-07,2.348354,2.084435
3.1e-07,2.361625,2.125252
3.2e-07,2.388301,2.173506
3.3e-07,2.425822,2.224561
3.4000000000000003e-07,2.471636,2.273829
3.5000000000000004e-07,2.52297,2.313705
3.6000000000000005e-07,2.576122,2.323725
3.7e-07,2.630314,2.323869
3.8e-07,2.68343,2.31562
3.9e-07,2.733411,2.300048
4.0000000000000003e-07,2.776369,2.27817
4.1000000000000004e-07,2.805519,2.250694
4.2e-07,2.827264,2.219278
4.3e-07,2.841735,2.185115
4.4e-07,2.848885,2.149456
4.5000000000000003e-07,2.848305,2.114728
4.6000000000000004e-07,2.839252,2.084477
4.7000000000000005e-07,2.823172,2.054883
4.800000000000001e-07,2.80048,2.025856
4.900000000000001e-07,2.771415,1.997324
5.000000000000001e-07,2.737603,1.967574
5.1e-07,2.700764,1.934722
5.2e-07,2.657433,1.903712
5.3e-07,2.6069,1.875862
5.4e-07,2.548706,1.852421
5.5e-07,2.47794,1.834908
5.6e-07,2.391179,1.824749
5.7e-07,2.298247,1.822568
5.800000000000001e-07,2.201368,1.829451
5.900000000000001e-07,2.102607,1.846289
6.000000000000001e-07,2.006822,1.877807
6.100000000000001e-07,1.91713,1.926347
6.2e-07,1.830121,1.985327
6.3e-07,1.746458,2.053735
6.4e-07,1.666745,2.130431
6.5e-07,1.591944,2.215719
6.6e-07,1.522716,2.308684
6.7e-07,1.459061,2.405752
6.800000000000001e-07,1.401485,2.505086
6.900000000000001e-07,1.350147,2.605323
7.000000000000001e-07,1.308842,2.70028
7.100000000000001e-07,1.277696,2.788593
7.200000000000001e-07,1.251963,2.875185
7.3e-07,1.230646,2.96012
7.4e-07,1.212715,3.043608
7.5e-07,1.19474,3.12641
7.6e-07,1.176222,3.208536
7.7e-07,1.159275,3.289673
7.8e-07,1.143788,3.369617
7.900000000000001e-07,1.129663,3.448425
8.000000000000001e-07,1.117038,3.525918
8.100000000000001e-07,1.105745,3.602155
8.200000000000001e-07,1.095448,3.677328
8.300000000000001e-07,1.085986,3.751492
8.4e-07,1.077196,3.824705
8.5e-07,1.068523,3.896868
8.6e-07,1.06003,3.968127
8.7e-07,1.051964,4.038717
8.8e-07,1.04432,4.108688
8.900000000000001e-07,1.037069,4.178371
9.000000000000001e-07,1.030223,4.247684
9.100000000000001e-07,1.023604,4.319156
9.200000000000001e-07,1.017208,4.392921
9.300000000000001e-07,1.011101,4.468182
9.400000000000001e-07,1.005343,4.544141
9.5e-07,1.0,4.62
9.600000000000001e-07,0.99644,4.687176
9.7e-07,0.993438,4.752549
9.800000000000001e-07,0.990878,4.816387
9.9e-07,0.988645,4.878958
1.0000000000000002e-06,0.986624,4.940531
1.01e-06,0.984698,5.001373
1.02e-06,0.982751,5.061754
1.03e-06,0.980669,5.121941
1.04e-06,0.976805,5.185
1.0500000000000001e-06,0.971979,5.249489
1.06e-06,0.966894,5.31418
1.0700000000000001e-06,0.961601,5.379036
1.08e-06,0.956152,5.444019
1.0900000000000002e-06,0.950599,5.50909
1.1e-06,0.944993,5.574213
1.1100000000000002e-06,0.939386,5.639348
1.12e-06,0.933831,5.704458
1.13e-06,0.928819,5.768796
1.14e-06,0.924996,5.831369
1.15e-06,0.921325,5.893892
1.1600000000000001e-06,0.917773,5.956459
1.17e-06,0.914312,6.019166
1.1800000000000001e-06,0.910909,6.082107
1.19e-06,0.907535,6.145379
1.2000000000000002e-06,0.904157,6.209074
1.21e-06,0.900746,6.273289
1.2200000000000002e-06,0.89727,6.338118
1.23e-06,0.893698,6.403657
1.24e-06,0.89,6.47
1.25e-06,0.885982,6.53822
1.26e-06,0.881984,6.606184
1.2700000000000001e-06,0.878062,6.67312
1.28e-06,0.874242,6.738704
1.2900000000000001e-06,0.870494,6.803601
1.3e-06,0.866816,6.868038
1.3100000000000002e-06,0.863201,6.932237
1.32e-06,0.859577,6.996549
1.3300000000000002e-06,0.855398,7.06216
1.34e-06,0.851392,7.127992
1.35e-06,0.847688,7.194033
1.3600000000000001e-06,0.844412,7.260278
1.37e-06,0.841691,7.326716
1.3800000000000001e-06,0.839975,7.393406
1.39e-06,0.84031,7.460529
1.4000000000000001e-06,0.841317,7.527765
1.41e-06,0.842869,7.595052
1.4200000000000002e-06,0.844837,7.66233
1.43e-06,0.847093,7.729535
1.4400000000000002e-06,0.849509,7.796607
1.45e-06,0.850901,7.863115
1.46e-06,0.852037,7.929311
1.4700000000000001e-06,0.853233,7.995288
1.48e-06,0.854536,8.061046
1.4900000000000001e-06,0.855996,8.126584
1.5e-06,0.857661,8.191904
1.5100000000000002e-06,0.859581,8.257007
1.52e-06,0.862505,8.321619
1.5300000000000002e-06,0.865905,8.385966
1.54e-06,0.869559,8.450153
1.5500000000000002e-06,0.87342,8.514217
1.56e-06,0.877442,8.578197
1.57e-06,0.881578,8.642129
1.5800000000000001e-06,0.885779,8.706051
1.59e-06,0.89,8.77
1.6000000000000001e-06,0.893536,8.834834
1.61e-06,0.897043,8.899713
1.6200000000000002e-06,0.900533,8.964601
1.63e-06,0.904019,9.029461
1.6400000000000002e-06,0.907515,9.094255
1.65e-06,0.911031,9.15895
1.6600000000000002e-06,0.914582,9.223506
1.67e-06,0.91818,9.287887
1.68e-06,0.922005,9.3516
1.6900000000000001e-06,0.926066,9.414623
1.7e-06,0.930183,9.477437
1.7100000000000001e-06,0.934345,9.540071
1.72e-06,0.93854,9.602554
1.7300000000000002e-06,0.942755,9.664919
1.74e-06,0.94698,9.727194
1.7500000000000002e-06,0.9512,9.789409
1.76e-06,0.955406,9.851594
1.7700000000000002e-06,0.959584,9.91378
1.7800000000000001e-06,0.963312,9.976133
1.79e-06,0.966957,10.03856
1.8000000000000001e-06,0.970578,10.10106
1.81e-06,0.974189,10.16366
1.8200000000000002e-06,0.977805,10.22638
1.83e-06,0.98144,10.28924
1.8400000000000002e-06,0.985108,10.35226
1.85e-06,0.988823,10.41547
1.8600000000000002e-06,0.992601,10.47888
1.87e-06,0.996455,10.54252
1.8800000000000002e-06,1.000428,10.60661
1.8900000000000001e-06,1.00477,10.67284
1.9e-06,1.009221,10.73929
1.91e-06,1.013784,10.8059
1.9200000000000003e-06,1.018459,10.87258
1.93e-06,1.023247,10.93927
1.94e-06,1.028149,11.00589
1.95e-06,1.033165,11.07236
1.9600000000000003e-06,1.038297,11.13862
1.97e-06,1.043546,11.20459
1.98e-06,1.048912,11.27019
1.99e-06,1.054396,11.33535
2.0000000000000003e-06,1.06,11.4
2.0100000000000002e-06,1.066018,11.46087
2.02e-06,1.072153,11.52113
2.03e-06,1.078394,11.58081
2.04e-06,1.084733,11.63997
2.0500000000000003e-06,1.091159,11.69863
2.06e-06,1.097664,11.75685
2.07e-06,1.104237,11.81465
2.08e-06,1.110869,11.87209
2.0900000000000003e-06,1.11755,11.92919
2.1000000000000002e-06,1.12427,11.98601
2.11e-06,1.131021,12.04258
2.12e-06,1.137792,12.09894
2.13e-06,1.144574,12.15514
2.1400000000000003e-06,1.151275,12.21125
2.15e-06,1.157642,12.26744
2.16e-06,1.163998,12.32359
2.17e-06,1.170342,12.37972
2.1800000000000003e-06,1.176678,12.43587
2.19e-06,1.183005,12.49207
2.2e-06,1.189327,12.54836
2.21e-06,1.195644,12.60477
2.2200000000000003e-06,1.201958,12.66134
2.2300000000000002e-06,1.20827,12.71811
2.24e-06,1.214582,12.77509
2.25e-06,1.220896,12.83234
2.26e-06,1.227212,12.88988
2.2700000000000003e-06,1.233533,12.94775
2.28e-06,1.23986,13.00598
2.29e-06,1.246195,13.06462
2.3e-06,1.252539,13.12368
2.3100000000000003e-06,1.258893,13.18321
2.3200000000000002e-06,1.265259,13.24324
2.33e-06,1.271639,13.30381
2.34e-06,1.278034,13.36495
2.35e-06,1.284446,13.42669
2.3600000000000003e-06,1.290875,13.48907
2.37e-06,1.297325,13.55212
2.38e-06,1.303795,13.61588
2.39e-06,1.310289,13.68039
2.4000000000000003e-06,1.316806,13.74567
2.4100000000000002e-06,1.323349,13.81176
2.42e-06,1.32992,13.8787
2.43e-06,1.336519,13.94651
2.4400000000000004e-06,1.343149,14.01524
2.4500000000000003e-06,1.34981,14.08492
2.46e-06,1.356505,14.15559
2.47e-06,1.363234,14.22727
2.48e-06,1.37,14.3
