wavelength[m],n,k
1.23985181e-07,0.441,0.88
1.24608222e-07,0.440813,0.88625
1.25237557e-07,0.44,0.891
1.2587328000000001e-07,0.438188,0.89525
1.26515491e-07,0.435,0.9
1.27164289e-07,0.429063,0.907063
1.2781977500000002e-07,0.423,0.915
1.28482053e-07,0.419813,0.922938
1.29151231e-07,0.417,0.931
1.29827415e-07,0.412875,0.938688
1.30510717e-07,0.408,0.947
1.3120125e-07,0.401875,0.957313
1.31899129e-07,0.396,0.968
1.32604472e-07,0.39275,0.977187
1.33317399e-07,0.389,0.987
1.3403803400000002e-07,0.381,0.99925
1.3476650100000002e-07,0.373,1.013
1.3550293e-07,0.36875,1.02825
1.3624745200000001e-07,0.366,1.044
1.370002e-07,0.364,1.058812
1.37761313e-07,0.362,1.074
1.38530929e-07,0.358188,1.0905
1.39309192e-07,0.355,1.108
1.4009625000000002e-07,0.354688,1.127125
1.40892251e-07,0.356,1.146
1.4169735e-07,0.359,1.16225
1.42511703e-07,0.362,1.178
1.4333547e-07,0.362625,1.194625
1.4416881500000002e-07,0.363,1.212
1.45011908e-07,0.364375,1.230937
1.45864919e-07,0.367,1.25
1.46728025e-07,0.372313,1.267687
1.4760140600000002e-07,0.378,1.285
1.48485247e-07,0.381562,1.30225
1.4937973600000003e-07,0.385,1.32
1.50285068e-07,0.389375,1.339375
1.51201441e-07,0.395,1.359
1.52129057e-07,0.402938,1.377313
1.53068125e-07,0.412,1.396
1.54018859e-07,0.421625,1.417438
1.54981477e-07,0.431,1.438
1.55956203e-07,0.438313,1.453375
1.56943267e-07,0.446,1.468
1.57942906e-07,0.4565,1.485813
1.5895536100000002e-07,0.468,1.504
1.59980879e-07,0.479313,1.520813
1.61019716e-07,0.491,1.537
1.6207213200000003e-07,0.503437,1.552562
1.6313839600000002e-07,0.516,1.568
1.64218783e-07,0.527875,1.58425
1.65313575e-07,0.54,1.6
1.66423062e-07,0.553375,1.613563
1.67547542e-07,0.567,1.627
1.68687321e-07,0.579813,1.642375
1.6984271400000002e-07,0.593,1.658
1.71014043e-07,0.607688,1.673125
1.7220164100000002e-07,0.623,1.687
1.7340584800000002e-07,0.6385,1.697625
1.74627016e-07,0.654,1.708
1.7586550500000003e-07,0.668875,1.72175
1.7712168800000002e-07,0.684,1.735
1.78395944e-07,0.70075,1.74425
1.79688669e-07,0.717,1.752
1.8100026500000003e-07,0.7305,1.759437
1.8233114900000003e-07,0.743,1.767
1.8368175e-07,0.755813,1.775938
1.85052509e-07,0.768,1.785
1.8644388200000002e-07,0.778812,1.793062
1.87856335e-07,0.789,1.801
1.8929035300000003e-07,0.799313,1.809125
1.9074643300000002e-07,0.809,1.818
1.9222508700000001e-07,0.817438,1.828375
1.93726846e-07,0.825,1.84
1.95252254e-07,0.831313,1.852875
1.9680187500000001e-07,0.838,1.867
1.9837629000000002e-07,0.847188,1.882375
1.99976099e-07,0.857,1.899
2.01601921e-07,0.86525,1.920562
2.0325439600000004e-07,0.875,1.936
2.04934184e-07,0.889437,1.923438
2.06641969e-07,0.906,1.919
2.08378456e-07,0.922813,1.96675
2.1014437500000002e-07,0.941,2.021
2.1194048100000003e-07,0.961188,2.042875
2.13767554e-07,0.983,2.056
2.1562640200000003e-07,1.006563,2.072688
2.1751786200000003e-07,1.031,2.088
2.1944279900000003e-07,1.055937,2.1005
2.21402109e-07,1.08,2.112
2.2339672300000003e-07,1.100812,2.124062
2.25427602e-07,1.121,2.136
2.2749574500000002e-07,1.142563,2.147187
2.2960218800000001e-07,1.165,2.159
2.3174800200000003e-07,1.191938,2.174125
2.33934304e-07,1.213,2.188
2.3616225000000003e-07,1.2075,2.195188
2.38433041e-07,1.21,2.201
2.40747925e-07,1.263062,2.210625
2.4310819900000004e-07,1.322,2.219
2.4551521000000003e-07,1.348375,2.221313
2.47970363e-07,1.366,2.222
2.50475114e-07,1.387938,2.224125
2.53030982e-07,1.408,2.227
2.55639549e-07,1.42325,2.230438
2.58302461e-07,1.437,2.236
2.61021434e-07,1.452,2.245375
2.63798258e-07,1.467,2.258
2.66634798e-07,1.480125,2.273812
2.6953300300000005e-07,1.496,2.293
2.7249490400000003e-07,1.519187,2.31775
2.75522625e-07,1.548,2.342
2.78618385e-07,1.5825,2.359437
2.81784503e-07,1.622,2.373
2.8502340500000006e-07,1.667375,2.38475
2.88337631e-07,1.714,2.391
2.91729838e-07,1.7575,2.388438
2.9520281300000004e-07,1.798,2.378
2.9875947300000006e-07,1.836125,2.356563
3.02402881e-07,1.866,2.333
3.0613625e-07,1.878438,2.315687
3.09962953e-07,1.884,2.303
3.13886535e-07,1.891062,2.29625
3.1791072100000004e-07,1.897,2.295
3.22039432e-07,1.90075,2.2995
3.26276793e-07,1.906,2.309
3.3062715e-07,1.916687,2.323875
3.35095085e-07,1.931,2.341
3.3968542800000003e-07,1.948062,2.356625
3.4440328100000003e-07,1.969,2.373
3.49254032e-07,1.995375,2.393125
3.5424337500000004e-07,2.025,2.411
3.59377337e-07,2.057375,2.41975
3.6466229800000006e-07,2.089,2.425
3.7010501900000006e-07,2.114875,2.429812
3.75712671e-07,2.139,2.435
3.8149286600000003e-07,2.163875,2.442875
3.87453692e-07,2.189,2.452
3.9360375000000003e-07,2.21525,2.461625
3.99952198e-07,2.241,2.472
4.06508791e-07,2.263937,2.482938
4.13283938e-07,2.287,2.495
4.2028875000000003e-07,2.31275,2.507875
4.27535108e-07,2.34,2.524
4.3503572400000006e-07,2.366937,2.547312
4.42804219e-07,2.398,2.573
4.50855205e-07,2.438375,2.597875
4.592043750000001e-07,2.484,2.621
4.67868609e-07,2.532,2.639812
4.76866082e-07,2.584,2.656
4.86216397e-07,2.641313,2.671
4.95940725e-07,2.702,2.683
5.06061964e-07,2.763563,2.692
5.16604922e-07,2.829,2.694
5.27596516e-07,2.904063,2.685
5.390660060000001e-07,2.978,2.665
5.5104525e-07,3.042062,2.631
5.63569006e-07,3.096,2.588
5.76675262e-07,3.137312,2.537875
5.904056250000001e-07,3.164,2.487
6.04805762e-07,3.171375,2.440562
6.19925906e-07,3.165,2.404
6.358214430000001e-07,3.146625,2.384313
6.52553586e-07,3.123,2.382
6.70190169e-07,3.099625,2.399875
6.888065630000001e-07,3.082,2.438
7.084867500000001e-07,3.073875,2.49975
7.293245960000001e-07,3.086,2.578
7.51425341e-07,3.129,2.670313
7.74907383e-07,3.207,2.766
7.999043950000001e-07,3.32725,2.866688
8.26567875e-07,3.491,2.933
8.55070216e-07,3.729375,2.928
8.85608438e-07,3.96,2.846
9.184087500000002e-07,4.107812,2.641313
9.53732164e-07,4.182,2.397
9.9188145e-07,4.158937,2.1795
1.03320984e-06,4.062,1.993
1.0781320100000002e-06,3.896187,1.86675
1.12713801e-06,3.693,1.792
1.1808112500000001e-06,3.492937,1.766375
1.2398518099999999e-06,3.274,1.8
1.3051071700000002e-06,3.013062,1.897562
1.3776131300000001e-06,2.754,2.073
1.4586491900000002e-06,2.5315,2.35075
1.54981477e-06,2.35,2.704
1.65313575e-06,2.222312,3.115313
1.7712168800000001e-06,2.158,3.581
1.90746433e-06,2.177438,4.0915
2.0664196900000003e-06,2.261,4.647
2.25427602e-06,2.388125,5.234187
2.47970363e-06,2.582,5.884
2.7552262500000005e-06,2.849437,6.611312
3.0996295300000005e-06,3.219,7.451
3.5424337500000004e-06,3.689875,8.395375
4.132839380000001e-06,4.357,9.587
4.95940725e-06,5.258875,11.19288
6.199259060000001e-06,6.564,13.132
8.26567875e-06,8.408375,15.38538
1.23985181e-05,10.928,17.934
2.47970363e-05,18.413,29.024
