wavelength[m],n,k
2.75829102e-07,3.8501,3.06
2.76752637e-07,3.8754,3.0305
2.77682377e-07,3.9031,2.9845
2.78618385e-07,3.9275,2.9297
2.7956072400000003e-07,3.9434,2.89
2.8050946e-07,3.9583,2.8368
2.81464657e-07,3.969,2.7795
2.82426381e-07,3.9838,2.7177
2.833947e-07,3.9869,2.6621
2.84369682e-07,3.9842,2.622
2.8535139500000003e-07,3.9799,2.5743
2.86339911e-07,3.9706,2.5306
2.87335298e-07,3.9522,2.4877
2.88337631e-07,3.9342,2.4386
2.8934698100000004e-07,3.92,2.4024
2.9036342200000004e-07,3.9079,2.3551
2.9138703e-07,3.8965,2.3193
2.9241788000000006e-07,3.8911,2.2878
2.9345605e-07,3.8788,2.2642
2.9450161800000004e-07,3.8705,2.2483
2.95554663e-07,3.854,2.2255
2.9661526600000005e-07,3.8376,2.2062
2.97683509e-07,3.8213,2.1893
2.9875947300000006e-07,3.8056,2.1673
2.9984324400000003e-07,3.7918,2.1457
3.0093490600000004e-07,3.7767,2.122
3.02034546e-07,3.7581,2.1018
3.03142253e-07,3.7435,2.0824
3.04258114e-07,3.7282,2.0689
3.0538222000000006e-07,3.7151,2.0559
3.06514663e-07,3.6965,2.0429
3.07655537e-07,3.683,2.033
3.08804935e-07,3.6711,2.0254
3.09962953e-07,3.6606,2.0167
3.1112969e-07,3.6514,2.009
3.12305243e-07,3.6408,2.0018
3.13489712e-07,3.6333,1.9956
3.1468320100000003e-07,3.6257,1.9956
3.15885812e-07,3.6156,1.994
3.1709765e-07,3.6087,1.989
3.18318822e-07,3.5993,1.9866
3.1954943600000004e-07,3.5936,1.9816
3.2078960200000004e-07,3.5836,1.9788
3.22039432e-07,3.5748,1.974
3.23299039e-07,3.5651,1.9677
3.24568537e-07,3.5607,1.9625
3.25848045e-07,3.5557,1.9615
3.27137682e-07,3.5464,1.9633
3.28437566e-07,3.5409,1.9614
3.29747823e-07,3.5392,1.9561
3.3106857500000003e-07,3.542,1.956
3.3239995e-07,3.5408,1.9563
3.3374207600000004e-07,3.5352,1.965
3.35095085e-07,3.5348,1.97
3.3645910800000003e-07,3.5351,1.9745
3.37834281e-07,3.5393,1.9786
3.39220742e-07,3.5379,1.9831
3.4061863e-07,3.5365,1.9851
3.42028086e-07,3.538,1.9837
3.43449256e-07,3.5402,1.979
3.4488228500000003e-07,3.5467,1.9787
3.46327322e-07,3.5468,1.9809
3.4778452e-07,3.5485,1.9893
3.49254032e-07,3.5512,1.9952
3.50736015e-07,3.5544,2.001
3.5223062900000003e-07,3.56,2.0075
3.5373803500000006e-07,3.5661,2.0138
3.5525839900000004e-07,3.5707,2.0209
3.5679188900000003e-07,3.5758,2.0281
3.58338674e-07,3.5827,2.0358
3.5989893e-07,3.5902,2.0426
3.61472832e-07,3.5976,2.0513
3.6306056000000004e-07,3.607,2.0595
3.6466229800000006e-07,3.6157,2.0679
3.66278231e-07,3.6249,2.0754
3.6790855e-07,3.6372,2.083
3.6955344600000003e-07,3.6502,2.0906
3.7121311800000003e-07,3.6631,2.0999
3.7288776300000004e-07,3.6792,2.1097
3.74577587e-07,3.6961,2.1199
3.7628279600000006e-07,3.7136,2.1313
3.78003601e-07,3.7316,2.1444
3.7974021800000003e-07,3.7533,2.158
3.8149286600000003e-07,3.7752,2.1735
3.8326176600000006e-07,3.7987,2.1877
3.85047147e-07,3.8271,2.2022
3.8684924000000005e-07,3.8587,2.2169
3.8866828e-07,3.8942,2.232
3.90504508e-07,3.9353,2.2466
3.92358169e-07,3.9798,2.2592
3.9422951100000003e-07,4.0306,2.2696
3.9611879000000003e-07,4.0873,2.2736
3.98026264e-07,4.1501,2.2707
3.99952198e-07,4.2131,2.2588
4.0189686e-07,4.2733,2.2356
4.03860525e-07,4.3303,2.2039
4.0584347400000004e-07,4.3798,2.1675
4.0784599100000006e-07,4.4213,2.1298
4.09868368e-07,4.4558,2.0937
4.11910901e-07,4.485,2.0598
4.13973894e-07,4.5111,2.0292
4.1605765500000005e-07,4.5367,2.0045
4.1816250000000005e-07,4.5653,1.9853
4.2028875000000003e-07,4.5995,1.9705
4.2243673400000003e-07,4.6414,1.9586
4.24606785e-07,4.6969,1.9447
4.26799247e-07,4.7647,1.924
4.2901446800000006e-07,4.8441,1.8872
4.3125280400000006e-07,4.9286,1.829
4.3351462e-07,5.0068,1.7484
4.3580028600000006e-07,5.0701,1.6477
4.38110181e-07,5.1103,1.5351
4.404446940000001e-07,5.1289,1.419
4.42804219e-07,5.1252,1.3094
4.4518916100000006e-07,5.1069,1.2105
4.4759993200000003e-07,5.0787,1.124
4.50036956e-07,5.0461,1.0487
4.5250066200000003e-07,5.0099,0.97999
4.5499149100000004e-07,4.9727,0.91971
4.57509894e-07,4.9345,0.86638
4.6005633100000004e-07,4.8959,0.81868
4.6263127300000007e-07,4.8565,0.77521
4.6523520200000007e-07,4.8188,0.73722
4.67868609e-07,4.7829,0.70185
4.70531997e-07,4.7482,0.66863
4.7322588300000006e-07,4.7139,0.64189
4.75950792e-07,4.6816,0.61629
4.787072640000001e-07,4.6491,0.59198
4.8149585e-07,4.6185,0.56832
4.84317114e-07,4.5879,0.5466
4.87171636e-07,4.5586,0.52656
4.900600050000001e-07,4.5307,0.50633
4.92982828e-07,4.5038,0.48834
4.95940725e-07,4.4767,0.47176
4.98934331e-07,4.45,0.45668
5.01964297e-07,4.4243,0.44444
5.05031288e-07,4.3995,0.43164
5.081359890000001e-07,4.3747,0.41976
5.11279098e-07,4.3507,0.40824
5.14461333e-07,4.3276,0.3962
5.176834290000001e-07,4.3056,0.3861
5.2094614e-07,4.285,0.37343
5.24250238e-07,4.2662,0.3625
5.27596516e-07,4.2464,0.35322
5.30985787e-07,4.2279,0.34393
5.344188850000001e-07,4.2102,0.33504
5.37896665e-07,4.193,0.32595
5.41420006e-07,4.1759,0.31864
5.449898080000001e-07,4.1595,0.31221
5.48606997e-07,4.1429,0.30586
5.52272522e-07,4.1267,0.30165
5.5598736e-07,4.1112,0.2962
5.59752511e-07,4.097,0.29025
5.63569006e-07,4.0821,0.28466
5.67437901e-07,4.0677,0.27913
5.71360282e-07,4.0542,0.27279
5.75337268e-07,4.0407,0.26716
5.793700060000001e-07,4.028,0.26255
5.834596770000001e-07,4.0154,0.25826
5.87607494e-07,4.0027,0.25264
5.91814708e-07,3.9904,0.2486
5.96082602e-07,3.9782,0.24499
6.004125e-07,3.9665,0.23988
6.04805762e-07,3.9548,0.23535
6.0926379e-07,3.9437,0.23067
6.13788026e-07,3.933,0.22563
6.18379957e-07,3.9221,0.22258
6.230411120000001e-07,3.9119,0.2192
6.2777307e-07,3.9013,0.21683
6.325774560000001e-07,3.8916,0.21362
6.374559450000001e-07,3.8818,0.21255
6.424102660000001e-07,3.8731,0.20886
6.474422e-07,3.8643,0.20619
6.52553586e-07,3.8562,0.20206
6.5774632e-07,3.8484,0.19859
6.630223600000001e-07,3.8411,0.1955
6.683837270000001e-07,3.8341,0.19276
6.73832507e-07,3.8275,0.18862
6.793708560000001e-07,3.8205,0.1833
6.85001002e-07,3.8148,0.1828
6.90725244e-07,3.8088,0.18077
6.965459620000001e-07,3.8029,0.17641
7.02465616e-07,3.7972,0.17374
7.084867500000001e-07,3.7921,0.16998
7.14611996e-07,3.7859,0.16812
7.208440770000001e-07,3.7796,0.16359
7.271858140000001e-07,3.7719,0.15643
7.33640126e-07,3.7643,0.14726
7.402100380000001e-07,3.7563,0.14142
7.468986820000001e-07,3.747,0.1375
7.53709309e-07,3.7396,0.12925
7.60645284e-07,3.7323,0.12314
7.677101010000001e-07,3.7258,0.11908
7.74907383e-07,3.7197,0.12134
7.822408910000001e-07,3.7138,0.12269
7.89714531e-07,3.7079,0.12206
7.97332356e-07,3.7014,0.11771
8.050985800000001e-07,3.6952,0.11692
8.13017582e-07,3.6884,0.11614
8.210939160000001e-07,3.6834,0.11118
8.293323160000001e-07,3.6823,0.11108
8.37737711e-07,3.6787,0.10465
8.463152310000001e-07,3.6747,0.1001
8.55070216e-07,3.6713,0.098061
8.640082320000001e-07,3.6705,0.096039
8.7313508e-07,3.6675,0.086891
8.82456806e-07,3.666,0.073638
8.919797220000001e-07,3.6618,0.06813
9.01710409e-07,3.6572,0.063412
9.116557450000001e-07,3.6465,0.069733
9.21822909e-07,3.63,0.084771
9.322194080000001e-07,3.6131,0.093643
9.4285309e-07,3.5936,0.10958
9.53732164e-07,3.589,0.10737
9.648652240000001e-07,3.5844,0.1052
9.7626127e-07,3.5799,0.10305
9.87929731e-07,3.5749,0.10137
9.998804940000001e-07,3.5712,0.098867
