wavelength[m],n,k
2.75829102e-07,4.4215,2.6115
2.76752637e-07,4.4098,2.5596
2.77682377e-07,4.3953,2.5117
2.78618385e-07,4.3794,2.4712
2.7956072400000003e-07,4.3583,2.4395
2.8050946e-07,4.3275,2.4142
2.81464657e-07,4.2934,2.3921
2.82426381e-07,4.2619,2.3719
2.833947e-07,4.2367,2.3538
2.84369682e-07,4.2203,2.339
2.8535139500000003e-07,4.2079,2.3285
2.86339911e-07,4.1979,2.3211
2.87335298e-07,4.1933,2.3144
2.88337631e-07,4.1918,2.3098
2.8934698100000004e-07,4.1895,2.3089
2.9036342200000004e-07,4.1899,2.3109
2.9138703e-07,4.1965,2.315
2.9241788000000006e-07,4.2062,2.3205
2.9345605e-07,4.2174,2.3268
2.9450161800000004e-07,4.2309,2.333
2.95554663e-07,4.2473,2.3394
2.9661526600000005e-07,4.2678,2.347
2.97683509e-07,4.2937,2.3552
2.9875947300000006e-07,4.3245,2.3623
2.9984324400000003e-07,4.3598,2.3662
3.0093490600000004e-07,4.3999,2.3658
3.02034546e-07,4.4431,2.3618
3.03142253e-07,4.4886,2.3549
3.04258114e-07,4.5364,2.3443
3.0538222000000006e-07,4.5853,2.3281
3.06514663e-07,4.6354,2.3056
3.07655537e-07,4.6891,2.2782
3.08804935e-07,4.7454,2.2465
3.09962953e-07,4.7977,2.2114
3.1112969e-07,4.8453,2.1724
3.12305243e-07,4.895,2.1269
3.13489712e-07,4.949,2.0752
3.1468320100000003e-07,5.0056,2.019
3.15885812e-07,5.0603,1.9592
3.1709765e-07,5.111,1.8949
3.18318822e-07,5.1575,1.8219
3.1954943600000004e-07,5.1972,1.7397
3.2078960200000004e-07,5.2267,1.6535
3.22039432e-07,5.2425,1.5663
3.23299039e-07,5.2494,1.4696
3.24568537e-07,5.2549,1.3575
3.25848045e-07,5.2511,1.2469
3.27137682e-07,5.2283,1.1516
3.28437566e-07,5.1885,1.0711
3.29747823e-07,5.1365,1.0037
3.3106857500000003e-07,5.0768,0.94826
3.3239995e-07,5.0136,0.9033
3.3374207600000004e-07,4.9497,0.86854
3.35095085e-07,4.8865,0.84064
3.3645910800000003e-07,4.8341,0.80607
3.37834281e-07,4.7972,0.76029
3.39220742e-07,4.7628,0.71747
3.4061863e-07,4.7267,0.68191
3.42028086e-07,4.6936,0.64908
3.43449256e-07,4.6622,0.61916
3.4488228500000003e-07,4.6304,0.59353
3.46327322e-07,4.5988,0.57048
3.4778452e-07,4.5684,0.54712
3.49254032e-07,4.5379,0.52503
3.50736015e-07,4.5072,0.50503
3.5223062900000003e-07,4.4776,0.48534
3.5373803500000006e-07,4.4484,0.4665
3.5525839900000004e-07,4.4203,0.4499
3.5679188900000003e-07,4.3943,0.43521
3.58338674e-07,4.3695,0.42161
3.5989893e-07,4.3454,0.4091
3.61472832e-07,4.3225,0.39764
3.6306056000000004e-07,4.301,0.38627
3.6466229800000006e-07,4.2799,0.37445
3.66278231e-07,4.2586,0.36202
3.6790855e-07,4.2375,0.34925
3.6955344600000003e-07,4.2172,0.33705
3.7121311800000003e-07,4.198,0.32508
3.7288776300000004e-07,4.1798,0.31229
3.74577587e-07,4.1617,0.29811
3.7628279600000006e-07,4.1439,0.28317
3.78003601e-07,4.1269,0.26917
3.7974021800000003e-07,4.1099,0.25578
3.8149286600000003e-07,4.0942,0.24256
3.8326176600000006e-07,4.0795,0.23062
3.85047147e-07,4.0642,0.21968
3.8684924000000005e-07,4.0482,0.20901
3.8866828e-07,4.0314,0.19812
3.90504508e-07,4.0149,0.186
3.92358169e-07,3.9991,0.17274
3.9422951100000003e-07,3.9827,0.16013
3.9611879000000003e-07,3.9644,0.14918
3.98026264e-07,3.9457,0.13897
3.99952198e-07,3.9292,0.12878
4.0189686e-07,3.9118,0.11874
4.03860525e-07,3.8935,0.10904
4.0584347400000004e-07,3.8763,0.099615
4.0784599100000006e-07,3.8583,0.090045
4.09868368e-07,3.8409,0.080385
4.11910901e-07,3.8245,0.070893
4.13973894e-07,3.8057,0.061946
4.1605765500000005e-07,3.7856,0.054228
4.1816250000000005e-07,3.7662,0.047991
4.2028875000000003e-07,3.7469,0.04317
4.2243673400000003e-07,3.7287,0.039063
4.24606785e-07,3.7124,0.034793
4.26799247e-07,3.6967,0.030212
4.2901446800000006e-07,3.6812,0.025286
4.3125280400000006e-07,3.6664,0.020041
4.3351462e-07,3.6521,0.014871
4.3580028600000006e-07,3.6367,0.0098862
4.38110181e-07,3.6189,0.0049464
4.404446940000001e-07,3.5991,0.0012427
4.42804219e-07,3.5814,0.0
4.4518916100000006e-07,3.5659,0.0
4.4759993200000003e-07,3.5502,0.0
4.50036956e-07,3.5352,0.0
4.5250066200000003e-07,3.5217,0.0
4.5499149100000004e-07,3.5095,0.0
4.57509894e-07,3.4986,0.0
4.6005633100000004e-07,3.4872,0.0
4.6263127300000007e-07,3.4754,0.0
4.6523520200000007e-07,3.4632,0.0
4.67868609e-07,3.4504,0.0
4.70531997e-07,3.4387,0.0
4.7322588300000006e-07,3.4281,0.0
4.75950792e-07,3.4186,0.0
4.787072640000001e-07,3.4101,0.0
4.8149585e-07,3.4011,0.0
4.84317114e-07,3.3915,0.0
4.87171636e-07,3.3813,0.0
4.900600050000001e-07,3.3704,0.0
4.92982828e-07,3.3614,0.0
4.95940725e-07,3.3534,0.0
4.98934331e-07,3.3439,0.0
5.01964297e-07,3.3354,0.0
5.05031288e-07,3.3286,0.0
5.081359890000001e-07,3.3205,0.0
5.11279098e-07,3.3109,0.0
5.14461333e-07,3.3031,0.0
5.176834290000001e-07,3.2961,0.0
5.2094614e-07,3.2878,0.0
5.24250238e-07,3.2796,0.0
5.27596516e-07,3.2731,0.0
5.30985787e-07,3.2675,0.0
5.344188850000001e-07,3.2605,0.0
5.37896665e-07,3.2528,0.0
5.41420006e-07,3.246,0.0
5.449898080000001e-07,3.2385,0.0
5.48606997e-07,3.2311,0.0
5.52272522e-07,3.2247,0.0
5.5598736e-07,3.2192,0.0
5.59752511e-07,3.2145,0.0
5.63569006e-07,3.2083,0.0
5.67437901e-07,3.2006,0.0
5.71360282e-07,3.1947,0.0
5.75337268e-07,3.1905,0.0
5.793700060000001e-07,3.1848,0.0
5.834596770000001e-07,3.1783,0.0
5.87607494e-07,3.1735,0.0
5.91814708e-07,3.1688,0.0
5.96082602e-07,3.1634,0.0
6.004125e-07,3.1573,0.0
6.04805762e-07,3.1513,0.0
6.0926379e-07,3.1462,0.0
6.13788026e-07,3.1403,0.0
6.18379957e-07,3.1345,0.0
6.230411120000001e-07,3.1296,0.0
6.2777307e-07,3.1255,0.0
6.325774560000001e-07,3.1216,0.0
6.374559450000001e-07,3.1168,0.0
6.424102660000001e-07,3.1122,0.0
6.474422e-07,3.1077,0.0
6.52553586e-07,3.104,0.0
6.5774632e-07,3.1003,0.0
6.630223600000001e-07,3.0959,0.0
6.683837270000001e-07,3.0909,0.0
6.73832507e-07,3.0851,0.0
6.793708560000001e-07,3.0801,0.0
6.85001002e-07,3.0768,0.0
6.90725244e-07,3.0735,0.0
6.965459620000001e-07,3.0687,0.0
7.02465616e-07,3.0648,0.0
7.084867500000001e-07,3.0624,0.0
7.14611996e-07,3.0587,0.0
7.208440770000001e-07,3.0534,0.0
7.271858140000001e-07,3.0497,0.0
7.33640126e-07,3.0468,0.0
7.402100380000001e-07,3.0424,0.0
7.468986820000001e-07,3.0389,0.0
7.53709309e-07,3.0361,0.0
7.60645284e-07,3.0319,0.0
7.677101010000001e-07,3.0278,0.0
7.74907383e-07,3.0245,0.0
7.822408910000001e-07,3.022,0.0
7.89714531e-07,3.0194,0.0
7.97332356e-07,3.0162,0.0
8.050985800000001e-07,3.0131,0.0
8.13017582e-07,3.01,0.0
8.210939160000001e-07,3.0077,0.0
8.293323160000001e-07,3.0047,0.0
8.37737711e-07,3.0009,0.0
8.463152310000001e-07,2.9987,0.0
8.55070216e-07,2.9966,0.0
8.640082320000001e-07,2.9938,0.0
8.7313508e-07,2.991,0.0
8.82456806e-07,2.9875,0.0
8.919797220000001e-07,2.9832,0.0
9.01710409e-07,2.9806,0.0
9.116557450000001e-07,2.9794,0.0
9.21822909e-07,2.9776,0.0
9.322194080000001e-07,2.975,0.0
9.4285309e-07,2.9725,0.0
9.53732164e-07,2.9701,0.0
9.648652240000001e-07,2.9669,0.0
9.7626127e-07,2.9638,0.0
9.87929731e-07,2.9622,0.0
